2theta,Intensity
0.0,2991291.8687303048
0.05,3129915.207569811
0.1,3278399.4742142265
0.15,3437702.2648863727
0.2,3608900.2572934353
0.25,3793207.425605882
0.3,3991996.5894537037
0.35,4206825.012731941
0.4,4439464.945565174
0.45,4691940.230636051
0.5,4966570.389354145
0.55,5266023.985950825
0.6,5593383.568584079
0.65,5952225.1474779025
0.7,6376224.020311156
0.75,7009020.984801456
0.8,8137292.948086326
0.85,9618851.014717085
0.9,11223697.416389864
0.95,12935279.973227754
1.0,14624086.735130308
1.05,16207239.095922215
1.1,17501865.03899484
1.15,18900059.768199053
1.2,20479574.837437116
1.25,22280952.543011438
1.3,24349927.17184627
1.35,26745015.8104196
1.4,29542127.263192594
1.45,32841246.69908451
1.5,36776339.30734038
1.55,41530375.639190525
1.6,47436127.211331636
1.65,54791494.712877676
1.7,64044895.42946525
1.75,76094917.06854261
1.8,92236145.26104005
1.85,114612744.46840656
1.9,146979728.7002218
1.95,196457325.56010062
2.0,280173344.29618967
2.05,472456791.69239503
2.1,1138655005.426255
2.15,3168192920.9605823
2.2,10186785771.50629
2.25,13332169065.024954
2.3,10489621598.834682
2.35,8393947383.552204
2.4,7861470514.179859
2.45,7988767144.316218
2.5,8301366853.779691
2.55,8708283685.324968
2.6,9205332677.825369
2.65,9759938565.213434
2.7,10383679535.943964
2.75,11049826314.15182
2.8,11785844075.432663
2.85,12642339212.012383
2.9,13756072937.033916
2.95,15398966682.874596
3.0,17834491001.77956
3.05,20757871542.91201
3.1,23366248419.734314
3.15,25197144260.686485
3.2,26365527163.37029
3.25,26908594525.531624
3.3,26996873530.99545
3.35,27387442447.543793
3.4,28799981228.974995
3.45,31173358640.197983
3.5,34241209240.17013
3.55,37923609014.95849
3.6,42293536936.21284
3.65,47504120648.904755
3.7,53773691963.66731
3.75,61425619989.7573
3.8,70922926631.45406
3.85,82794592347.43425
3.9,97631325069.52444
3.95,116705083947.83128
4.0,142130980135.51828
4.05,176961466317.6566
4.1,226292022755.83862
4.15,299281209389.2834
4.2,413928323544.1034
4.25,619179236478.1556
4.3,1154999669505.4758
4.35,3079884071068.708
4.4,8284215312316.533
4.45,14773072587910.145
4.5,13205828057843.266
4.55,6340515793406.097
4.6,2254077507831.2417
4.65,950073241929.771
4.7,601335872534.2388
4.75,507810593925.1817
4.8,527850029152.94836
4.85,578219548867.2491
4.9,593624232457.5164
4.95,553917422760.3835
5.0,463229155905.39923
5.05,368554310234.30554
5.1,297989417092.3865
5.15,238231063723.55026
5.2,172665374783.75726
5.25,115988209913.16881
5.3,80911624257.86987
5.35,62528926162.50226
5.4,52920169209.25814
5.45,47224147030.58973
5.5,43674623040.19093
5.55,41154464671.62464
5.6,39699177540.411575
5.65,39276431195.387
5.7,39970573100.64752
5.75,42337116882.421196
5.8,48337010315.96911
5.85,62623457307.82783
5.9,91526289679.00876
5.95,142342200327.56094
6.0,223796562813.90857
6.05,331715022861.5121
6.1,444948415448.7792
6.15,543684718169.7903
6.2,605000492180.1665
6.25,625851269386.1915
6.3,629502351176.2433
6.35,639063392688.1515
6.4,643108077734.2678
6.45,619670434480.0862
6.5,563472175822.3672
6.55,474979211070.76105
6.6,352685621500.4094
6.65,223946542845.2637
6.7,124230792061.0514
6.75,69774295743.70062
6.8,42018276615.83614
6.85,29225829430.251026
6.9,23573117967.47197
6.95,20742127435.007763
7.0,19111764186.2567
7.05,18274993494.331593
7.1,18114512970.280186
7.15,18484473188.922108
7.2,19151311684.96546
7.25,19962657844.113644
7.3,21083413489.780014
7.35,23110325244.245148
7.4,26748434144.767326
7.45,33015155746.845512
7.5,44035286499.14359
7.55,66554474512.516785
7.6,132722058966.0863
7.65,330540160695.1248
7.7,692118372344.5741
7.75,878179461484.2775
7.8,620137590048.4536
7.85,339178908724.6502
7.9,231922458521.28455
7.95,205511764736.40048
8.0,178955880695.47076
8.05,148052725803.46158
8.1,123026693622.3667
8.15,100758880548.20343
8.2,78560533689.66081
8.25,59204800205.836784
8.3,44956734468.73437
8.35,35457031679.73061
8.4,30386558843.41807
8.45,30794733668.78789
8.5,37864816493.28228
8.55,52604357928.04047
8.6,77340176723.68396
8.65,111825311258.30478
8.7,149909608925.2794
8.75,181774642633.38208
8.8,207113375085.30786
8.85,260483453493.0309
8.9,367969121091.43243
8.95,432646610022.1957
9.0,376496639547.29065
9.05,310729685606.1258
9.1,278643299678.9339
9.15,251419764357.55286
9.2,210076218444.6349
9.25,160421806604.36707
9.3,118949871616.05835
9.35,88590819625.33292
9.4,64616773283.58179
9.45,45294408619.529854
9.5,35358602192.18845
9.55,36065066065.095024
9.6,46053507967.74287
9.65,62876222934.974724
9.7,83301902588.16795
9.75,105155018765.00285
9.8,124572235405.38115
9.85,138265831638.69556
9.9,145672467445.13364
9.95,148402857026.26178
10.0,149832602974.1006
10.05,151162164055.11798
10.1,148950036011.1226
10.15,143691446356.62106
10.2,135647974955.95058
10.25,123828393294.28313
10.3,109318688056.78143
10.35,91328794643.08618
10.4,69878603740.63184
10.45,51100460833.15949
10.5,38474817899.456726
10.55,31241023217.613636
10.6,27590655662.614285
10.65,26741528691.338566
10.7,27828070171.43387
10.75,29070457206.777843
10.8,29490739846.74984
10.85,29451309014.737366
10.9,29412098100.219875
10.95,29247384512.606415
11.0,28419306328.96351
11.05,26992908213.193607
11.1,24876020310.918804
11.15,22521025915.878597
11.2,20544530387.235737
11.25,19116807029.116333
11.3,18446473116.427086
11.35,18285172796.217148
11.4,18102067156.264126
11.45,18228129901.50261
11.5,18854292290.701443
11.55,19842614349.64722
11.6,21142559003.202763
11.65,23185009162.689175
11.7,28511932342.568237
11.75,43170810257.772285
11.8,69427056980.67741
11.85,89105629548.23798
11.9,86723444798.30241
11.95,74858920915.99065
12.0,62493875070.16865
12.05,52485149712.97965
12.1,45274212583.42139
12.15,40398817669.94915
12.2,37730426480.13007
12.25,38310699539.08499
12.3,43657747388.46266
12.35,53394633922.0892
12.4,65465915927.26791
12.45,74898265517.09222
12.5,76974535418.75063
12.55,73831966318.82556
12.6,71288499777.76346
12.65,71926141210.99338
12.7,75949336838.81519
12.75,82396066804.54169
12.8,88250202809.33069
12.85,89583720216.67068
12.9,86314617403.6819
12.95,78564002292.39594
13.0,67910816672.21587
13.05,58503324207.31915
13.1,51536501474.955154
13.15,46131141827.44053
13.2,42698755229.858826
13.25,40942692385.35075
13.3,40524506960.19576
13.35,39744356251.96238
13.4,37082732150.926704
13.45,33194768149.46824
13.5,30028102422.033943
13.55,27996774758.908936
13.6,26527814442.766415
13.65,25083527190.191906
13.7,24132504512.329887
13.75,23612569437.361366
13.8,22859117178.35711
13.85,21672451056.049503
13.9,20468239814.64324
13.95,19337078762.87851
14.0,17914653977.811203
14.05,16100355999.346916
14.1,14271533253.2824
14.15,12920920667.434383
14.2,12133829662.502676
14.25,11747597145.092485
14.3,11572748562.527927
14.35,11693575820.864185
14.4,12239248477.805769
14.45,13010748027.13792
14.5,13619947864.46141
14.55,13893680186.60239
14.6,13978751662.005127
14.65,14002377428.178455
14.7,13871158588.47508
14.75,13739519720.264193
14.8,13831280308.870148
14.85,14018855593.813652
14.9,14189322884.366182
14.95,14375013354.345194
15.0,14691178844.160826
15.05,15175094264.085943
15.1,15521856366.622784
15.15,15481471380.337173
15.2,15243039703.288115
15.25,15169560555.717453
15.3,15002440352.235472
15.35,14572680709.760984
15.4,14589300778.174082
15.45,16290580252.620722
15.5,19323198446.934113
15.55,21313697601.497227
15.6,20743372988.90006
15.65,19227111710.85439
15.7,18572229072.856895
15.75,18732908383.81814
15.8,19217338169.25509
15.85,19957246892.067787
15.9,20586915897.83391
15.95,20559339566.42989
16.0,19605097455.593906
16.05,18382309031.802395
16.1,17692333574.28857
16.15,17549990292.495975
16.2,17843421622.13846
16.25,18407692224.203655
16.3,18932598982.749397
16.35,19295003300.679348
16.4,19483796776.846027
16.45,19401783413.739964
16.5,18981429465.15511
16.55,18462108690.557297
16.6,17738323687.49569
16.65,16514761979.208197
16.7,15049969966.23949
16.75,13718390891.003141
16.8,12841993071.220936
16.85,12351800231.446835
16.9,11875835613.981737
16.95,11362586252.037788
17.0,11085759828.676376
17.05,10919198166.877502
17.1,10722692435.527563
17.15,10454435062.321106
17.2,10195119719.641573
17.25,9910255397.254864
17.3,9691664535.592617
17.35,9661875513.054115
17.4,9790957769.670782
17.45,10039160251.816607
17.5,10349969444.000029
17.55,10661051311.261118
17.6,10993912318.00314
17.65,11234747196.773743
17.7,11287725295.297544
17.75,11289220169.345638
17.8,11554521316.891565
17.85,12291038361.063486
17.9,13171447656.190691
17.95,13548414473.940487
18.0,13458637145.229727
18.05,13379106511.580898
18.1,13446043923.877197
18.15,13649907404.099115
18.2,13861912098.147757
18.25,13945588890.940851
18.3,13881585926.15074
18.35,13661136882.633121
18.4,13451786734.643188
18.45,13328829793.828873
18.5,13093540089.597958
18.55,12942493068.207083
18.6,12990012652.188915
18.65,13139823834.246794
18.7,13319037189.657225
18.75,13480443416.260754
18.8,13525190357.606287
18.85,13396577567.150782
18.9,13132251286.610655
18.95,12905628930.642689
19.0,12935867596.449661
19.05,13207330919.868452
19.1,13569886693.360626
19.15,13954396685.97832
19.2,14281850372.829973
19.25,14507680590.759388
19.3,14608854219.478233
19.35,14519632700.13516
19.4,14428442867.552113
19.45,14461514871.009233
19.5,14442469205.376226
19.55,14411396113.387344
19.6,14446054278.82556
19.65,14562704421.549965
19.7,14823645077.747612
19.75,15183115097.801928
19.8,15391087975.826727
19.85,15411024295.489225
19.9,15450056889.605564
19.95,15645888531.120934
20.0,15879046748.337875
20.05,16062128859.085306
20.1,16212935008.256332
20.15,16351218887.320843
20.2,16578160220.926807
20.25,16741967028.974802
20.3,16726309128.334139
20.35,16737826847.79952
20.4,17072552640.56482
20.45,18105864959.508816
20.5,20149548910.055405
20.55,22487743850.195927
20.6,23495701066.878433
20.65,23162206681.46664
20.7,22608521802.900616
20.75,22636764638.06761
20.8,23052377113.510895
20.85,23240635122.373024
20.9,23096208825.821556
20.95,22838856351.358105
21.0,22349823788.584244
21.05,21624826807.10933
21.1,20882179163.04224
21.15,20251903348.846058
21.2,19859582801.787563
21.25,19649759204.45573
21.3,19473763492.541405
21.35,19440900816.12206
21.4,19445101182.621223
21.45,19278125549.310192
21.5,19005520475.533386
21.55,18755763422.455215
21.6,18580253228.581734
21.65,18632579142.801956
21.7,18866957151.099194
21.75,19279931249.477276
21.8,19821982386.440792
21.85,20241490790.55411
21.9,20621205726.20739
21.95,21211500347.248646
22.0,21859638180.71743
22.05,22274412493.26887
22.1,22467997431.387253
22.15,22638353815.769096
22.2,23183318593.41624
22.25,24233695229.286278
22.3,25770614133.01514
22.35,27630686133.96352
22.4,29889519801.420776
22.45,32554030750.425396
22.5,35458378068.2526
22.55,38613163803.541466
22.6,41951432468.80395
22.65,44827274791.042946
22.7,47513488597.6249
22.75,50441587242.6065
22.8,52493642276.477646
22.85,54011672797.25676
22.9,55528966306.66398
22.95,56631649026.84433
23.0,57312645732.299385
23.05,57812216125.324356
23.1,58196288852.45952
23.15,57609144073.73701
23.2,56041178232.31476
23.25,53829612239.55687
23.3,51354939685.20845
23.35,49171971761.49045
23.4,47371766987.94545
23.45,45723077579.13781
23.5,44231828304.34847
23.55,42461923756.54761
23.6,40602761705.652824
23.65,39353181762.98712
23.7,39031611058.537575
23.75,38853060640.29449
23.8,38351545847.51553
23.85,37748815193.85516
23.9,37031128137.795906
23.95,36194197597.17326
24.0,35457816040.52508
24.05,34909966837.45323
24.1,34377843614.80179
24.15,33516829904.814575
24.2,32439200622.88763
24.25,31300527413.45675
24.3,30135395018.808945
24.35,29159049802.894653
24.4,28542079496.15586
24.45,28476830100.33588
24.5,28901193530.711533
24.55,29314495540.30721
24.6,29615215727.93413
24.65,30357172953.33466
24.7,31568381291.50049
24.75,32566359530.604767
24.8,33319095706.430706
24.85,34073131843.580524
24.9,34732231617.694496
24.95,35354173705.00944
25.0,36093953531.861176
25.05,36556507132.06226
25.1,36324830362.657005
25.15,35386693313.98558
25.2,34286916416.509808
25.25,33479182912.91819
25.3,32919768648.827694
25.35,32439741295.52356
25.4,31686698603.483704
25.45,30690734006.501232
25.5,29635096721.812786
25.55,28671077072.38907
25.6,27884579897.563515
25.65,27288412215.02954
25.7,26961773864.016506
25.75,26592037796.967266
25.8,25827668063.019783
25.85,25171418062.472702
25.9,24795626215.11347
25.95,24411753847.57526
26.0,23956964105.860905
26.05,23591877168.86916
26.1,23387980694.611282
26.15,23310565577.79432
26.2,23352154297.32297
26.25,23361963824.40684
26.3,23264711869.743515
26.35,23147062782.481457
26.4,23149100167.96626
26.45,23632012368.664154
26.5,25168430249.480946
26.55,28150343908.990288
26.6,33777041980.4863
26.65,45579778359.4567
26.7,66431250310.063194
26.75,95494378928.28006
26.8,131076975429.60794
26.85,171888685476.4162
26.9,206938388163.01904
26.95,234505919080.02985
27.0,248863397128.81018
27.05,244447630789.36728
27.1,232208053497.99658
27.15,214190748168.305
27.2,188021971280.46448
27.25,161066929636.03198
27.3,139574667129.20078
27.35,122734538687.89757
27.4,109044916346.9522
27.45,97888770033.65091
27.5,89079244391.71759
27.55,82019921306.2427
27.6,76243176038.20839
27.65,71050792851.07832
27.7,65936361169.369354
27.75,60651642988.71141
27.8,55106120616.03428
27.85,49356951573.85687
27.9,43777215754.6704
27.95,38912864486.60277
28.0,34696865160.66737
28.05,31330855297.57435
28.1,29022726184.56013
28.15,27467887179.296684
28.2,26246322813.465843
28.25,24910270112.348667
28.3,23641468056.258884
28.35,22539610081.83388
28.4,21515056131.194965
28.45,20450121271.339375
28.5,19382240179.169067
28.55,18467235977.06941
28.6,17550820873.94314
28.65,16704039304.168232
28.7,16041411966.878017
28.75,15511805292.313833
28.8,15078181125.932896
28.85,14749000806.585508
28.9,14462521052.39555
28.95,14272371850.863913
29.0,14329916231.648098
29.05,14574523518.672188
29.1,14740724507.10602
29.15,14811285854.010948
29.2,14910748550.872625
29.25,15166591507.293642
29.3,15408918358.870363
29.35,15412511940.940487
29.4,15194752842.597183
29.45,14873190922.731752
29.5,14539266239.634777
29.55,14302582523.815083
29.6,14146101426.925968
29.65,13895676091.646864
29.7,13514270224.028051
29.75,13110910410.850603
29.8,12745737830.731764
29.85,12395432847.444637
29.9,12091097776.206903
29.95,11792706714.582895
30.0,11388974194.359667
30.05,10914318830.461878
30.1,10515410519.325232
30.15,10139561543.021147
30.2,9728421293.608202
30.25,9311054628.443304
30.3,8923285296.086378
30.35,8531239206.176679
30.4,8139684160.115672
30.45,7870850099.676704
30.5,7756517113.298589
30.55,7656136295.420672
30.6,7492570915.1003
30.65,7306928478.999365
30.7,7118844322.876943
30.75,6968776435.673644
30.8,6796350868.186779
30.85,6599355825.029081
30.9,6486577391.766932
30.95,6480356515.94439
31.0,6519578412.993459
31.05,6545131508.716577
31.1,6555391008.316591
31.15,6662550395.295457
31.2,6976922508.934802
31.25,7443542687.439674
31.3,7902029376.108473
31.35,8170052148.355052
31.4,8367747380.481547
31.45,8746351075.047144
31.5,9603376831.500229
31.55,11136109106.041481
31.6,13006182173.181805
31.65,14463745012.269894
31.7,14901408258.22456
31.75,14610650007.391972
31.8,14175963953.38467
31.85,13792102822.380981
31.9,13446896807.285713
31.95,13089188450.085135
32.0,12743183489.224627
32.05,12456717572.566856
32.1,12274620773.161293
32.15,12171785918.229889
32.2,12024154218.099342
32.25,11678455557.376858
32.3,11124882338.770662
32.35,10540267141.631086
32.4,9986978351.82996
32.45,9457800711.606632
32.5,9047909722.702911
32.55,8760269262.595013
32.6,8584068726.952285
32.65,8520967091.358416
32.7,8487377898.555987
32.75,8515428099.467619
32.8,8625062753.616823
32.85,8705853911.065758
32.9,8681357967.30344
32.95,8620254915.759043
33.0,8533012359.765541
33.05,8352235830.759823
33.1,8158749283.598546
33.15,7981714821.31672
33.2,7836669806.542639
33.25,7709779031.005006
33.3,7567832653.603929
33.35,7410608693.124252
33.4,7252160325.907276
33.45,7098194155.909976
33.5,6961987301.875379
33.55,6846487012.244048
33.6,6729016095.545876
33.65,6659281812.48317
33.7,6655749554.091052
33.75,6647429386.381907
33.8,6629584575.081829
33.85,6657224723.236462
33.9,6760185781.564741
33.95,6887627990.734091
34.0,7008997782.737205
34.05,7212473889.844135
34.1,7639370323.440698
34.15,8222068153.017798
34.2,8686522965.993063
34.25,8819630275.11085
34.3,8624446579.4618
34.35,8263217546.6642275
34.4,7878152640.652344
34.45,7554445746.75232
34.5,7376759819.959408
34.55,7304552252.423159
34.6,7219137108.327344
34.65,7117125127.048983
34.7,7022197123.773474
34.75,6892089435.447301
34.8,6743639434.2537565
34.85,6613900147.857521
34.9,6495158434.963229
34.95,6383458527.596229
35.0,6302052798.406163
35.05,6283761474.326714
35.1,6293249225.143134
35.15,6317078953.543372
35.2,6458857881.049959
35.25,6879557471.419462
35.3,7609372147.645116
35.35,8460571649.914126
35.4,9050258825.058397
35.45,9074574931.900925
35.5,8630729155.824575
35.55,8112350926.695203
35.6,7773753978.220467
35.65,7609888935.162725
35.7,7495622377.811281
35.75,7496835616.573209
35.8,7882796923.014551
35.85,8955707445.015064
35.9,10796268759.269756
35.95,12740161793.116947
36.0,13759297114.929543
36.05,13338430493.730669
36.1,11805818237.328043
36.15,10143642044.006098
36.2,9013495365.963247
36.25,8424229602.565434
36.3,8128867457.973111
36.35,7918276771.370566
36.4,7735060708.289086
36.45,7585188527.5004835
36.5,7449803183.169758
36.55,7313449815.058091
36.6,7149347082.413215
36.65,6946115422.5390415
36.7,6718155320.839941
36.75,6494690303.65599
36.8,6301970291.485344
36.85,6170412646.954315
36.9,6084214088.955587
36.95,6077334072.195384
37.0,6288911905.917285
37.05,6824375394.8452
37.1,7625902149.223864
37.15,8442735614.858107
37.2,8960517723.35005
37.25,8998757298.462118
37.3,8602379738.872673
37.35,8120464036.722287
37.4,7814742080.502525
37.45,7676714901.679365
37.5,7575400997.432082
37.55,7388068143.263099
37.6,7163487403.115758
37.65,7031631788.807035
37.7,6937936428.66975
37.75,6861680441.77353
37.8,6834329923.887207
37.85,6829810870.431888
37.9,6799978058.376161
37.95,6784095941.271262
38.0,6708532778.929275
38.05,6553927007.723028
38.1,6400370225.866581
38.15,6298634851.475784
38.2,6262172919.3678
38.25,6283528571.94996
38.3,6347914292.474353
38.35,6447587738.062838
38.4,6532041196.379715
38.45,6611728981.670489
38.5,6652608887.891129
38.55,6585456678.322724
38.6,6523928426.282402
38.65,6530217237.420641
38.7,6522613046.90089
38.75,6539220959.61796
38.8,6623589264.043138
38.85,6679436903.453337
38.9,6654560672.529321
38.95,6579175091.827967
39.0,6471436564.632552
39.05,6346619768.45939
39.1,6238940088.661895
39.15,6179871336.952629
39.2,6191898671.110623
39.25,6331565477.622687
39.3,6621206680.911916
39.35,6958932934.030638
39.4,7192075763.180322
39.45,7268241505.994876
39.5,7235635751.05383
39.55,7205284342.341511
39.6,7251119325.523135
39.65,7320364476.373068
39.7,7301701737.982449
39.75,7133647150.629273
39.8,6862494210.7350025
39.85,6599430733.55652
39.9,6417458706.504366
39.95,6294670225.774785
40.0,6188083445.273354
40.05,6099309979.04832
40.1,6049036226.906639
40.15,6023500649.675896
40.2,6021068324.613524
40.25,6059324999.128268
40.3,6187800771.926474
40.35,6449561654.901385
40.4,6756136268.817352
40.45,6980083447.078053
40.5,7102292658.746251
40.55,7100546107.630587
40.6,6929297620.931083
40.65,6658255298.801486
40.7,6459818204.684943
40.75,6359434140.102746
40.8,6300221653.266727
40.85,6294347107.788757
40.9,6376749551.996532
40.95,6558642198.684685
41.0,6813405040.030622
41.05,7048673065.020704
41.1,7173299391.231801
41.15,7165720340.779033
41.2,7059996376.109736
41.25,6928598608.766933
41.3,6805851471.4457655
41.35,6701136260.15111
41.4,6597771644.330206
41.45,6510665325.273706
41.5,6492130935.081946
41.55,6628182006.232056
41.6,7033278330.491516
41.65,7890400634.65163
41.7,9358561521.75321
41.75,11261473459.946043
41.8,13029637493.316555
41.85,14102232246.39699
41.9,14296073986.089136
41.95,13704832447.975027
42.0,12824042704.406698
42.05,12192111014.699926
42.1,11791692202.109644
42.15,11442655838.431679
42.2,11139098790.919928
