2theta,Intensity
0.0,10140618.225147765
0.05,14391752.27167421
0.1,19243759.38646398
0.15,23506871.03326422
0.2,27467754.518007025
0.25,32476775.693930786
0.3,36811465.08150755
0.35,41445651.18144939
0.4,45321114.44270922
0.45,48691312.0438936
0.5,52276075.19496947
0.55,56289227.244464464
0.6,60383526.21835194
0.65,64610626.484555185
0.7,68991886.6202095
0.75,73755598.30227962
0.8,79034835.80757953
0.85,85086365.06130071
0.9,91468783.04526088
0.95,98744366.79661863
1.0,106844773.45295967
1.05,115993922.54631163
1.1,126048901.71726519
1.15,137496472.1587083
1.2,150460238.44363996
1.25,165160537.2032473
1.3,182167879.08014107
1.35,202077757.27679372
1.4,225627801.48560187
1.45,253783575.68688777
1.5,287593193.68921596
1.55,329195823.79718083
1.6,380875617.65587413
1.65,447183981.0388151
1.7,533142737.4391237
1.75,647069993.8776239
1.8,806773551.0328847
1.85,1045789204.6214668
1.9,1475135730.2909653
1.95,2628712937.5525813
2.0,6228990436.194354
2.05,13740177902.847664
2.1,19646151672.685062
2.15,16468987046.697836
2.2,13780376922.112238
2.25,19289272863.053852
2.3,27199996092.182293
2.35,31032433800.014763
2.4,31114630763.101673
2.45,30573400857.131313
2.5,30186558839.53928
2.55,28656401630.91302
2.6,25720420792.555027
2.65,21696359387.15158
2.7,18526961185.07816
2.75,17208317014.555744
2.8,16854364216.517916
2.85,16210840900.748207
2.9,15384472267.372746
2.95,14945024045.373089
3.0,15154773461.904295
3.05,16014818477.315582
3.1,17013737718.329432
3.15,17896954330.507133
3.2,19099559018.411915
3.25,20321985566.786205
3.3,21424328175.126774
3.35,22545255245.20997
3.4,23829297291.685345
3.45,25237605505.12857
3.5,26965305392.019802
3.55,29447305102.49865
3.6,32692797916.776253
3.65,36606601071.34197
3.7,41194134717.00569
3.75,46580133412.25438
3.8,53137492066.521835
3.85,61200422044.68827
3.9,70060671795.078
3.95,77653322318.61777
4.0,84840514356.44865
4.05,95102950361.88405
4.1,110904134730.57507
4.15,133912006669.31236
4.2,164639998126.68222
4.25,206170648112.56055
4.3,272583598700.2567
4.35,416117335736.4351
4.4,846413533890.2578
4.45,2031780091700.4607
4.5,4057430363105.9507
4.55,5559403667944.371
4.6,5679498056010.43
4.65,5127898397125.243
4.7,4777064424128.403
4.75,4549282137408.252
4.8,4111163369781.8223
4.85,3457631068969.7686
4.9,2873438493563.067
4.95,2437962243863.984
5.0,1954107620030.0774
5.05,1508807468967.086
5.1,1189364435735.837
5.15,933870326896.46
5.2,684692583228.3939
5.25,489514405492.5456
5.3,378734684346.46313
5.35,320660076957.8662
5.4,280091110716.4228
5.45,244961777176.16864
5.5,216269667152.36563
5.55,197710792973.0951
5.6,187821255273.27704
5.65,181922561635.1269
5.7,171625758773.93896
5.75,155222075490.68658
5.8,140863282001.71762
5.85,132198938254.21477
5.9,127689042930.57343
5.95,121385778122.74014
6.0,111646569931.67996
6.05,104478313722.88716
6.1,104944218881.07207
6.15,108674648812.0674
6.2,104626448648.88509
6.25,93826859266.96669
6.3,83144535207.13205
6.35,73310140192.94893
6.4,66335039166.22134
6.45,62125608434.40078
6.5,57884158769.31467
6.55,54141150088.36103
6.6,52871003479.14576
6.65,53803963357.15637
6.7,54986019332.10287
6.75,53877301869.97114
6.8,50534954401.38488
6.85,47107255379.86579
6.9,44108275604.85953
6.95,40242202555.43761
7.0,37525086802.91535
7.05,36650460999.209076
7.1,37106186784.56604
7.15,37353383956.75842
7.2,36965691230.49222
7.25,36247421476.8962
7.3,34994127812.94099
7.35,34377282390.256325
7.4,35195717472.232025
7.45,36410008125.99664
7.5,36411294156.640625
7.55,35978559645.98419
7.6,38298090647.08408
7.65,47715289306.12592
7.7,76943681941.92184
7.75,155392503700.2522
7.8,291507710978.5852
7.85,392869385812.36926
7.9,382800611701.95337
7.95,318180496036.33466
8.0,258391732491.5325
8.05,214434553839.21255
8.1,187385766420.05234
8.15,183445725494.29703
8.2,204426712344.49387
8.25,235128101419.54245
8.3,254405718604.06097
8.35,252579265377.77386
8.4,247102007513.02078
8.45,248139446202.54745
8.5,238724621620.50067
8.55,214487230551.7783
8.6,182246879662.3668
8.65,152394251301.8197
8.7,127444609739.37741
8.75,108198582871.232
8.8,95835222988.38387
8.85,90827261596.70209
8.9,97423100321.04572
8.95,129188757972.23973
9.0,194325804971.21106
9.05,246662592362.46783
9.1,247202965663.43277
9.15,229467884355.38242
9.2,217945399122.5676
9.25,204458472267.51562
9.3,187051909199.5301
9.35,174625077965.74252
9.4,175451494608.10873
9.45,182886524591.78653
9.5,182473834758.5082
9.55,177063278141.21597
9.6,170903352927.78378
9.65,159720064169.95105
9.7,144904510227.06937
9.75,133357933450.0402
9.8,127751774601.34547
9.85,124936369998.99355
9.9,122349796864.53577
9.95,112783141973.10162
10.0,97538042674.70535
10.05,84983324240.28334
10.1,78001377534.7626
10.15,73582100799.17822
10.2,69722979807.49675
10.25,67377868935.72623
10.3,65556674817.32476
10.35,61932525710.91108
10.4,57224305990.35738
10.45,51689460355.56079
10.5,47022380431.76912
10.55,44729499322.72517
10.6,43283119773.545135
10.65,40909502480.81295
10.7,38262111145.653305
10.75,35430180809.85258
10.8,32700028834.183674
10.85,30811008515.785088
10.9,29968802810.691353
10.95,29775575984.298153
11.0,29021827950.856483
11.05,27384258177.839672
11.1,25442125809.696053
11.15,23626435544.700573
11.2,22127622487.096172
11.25,21034172573.197506
11.3,20373315512.47256
11.35,19880543623.120903
11.4,19893733220.645813
11.45,20230171000.759388
11.5,20300013148.230816
11.55,19819428099.7567
11.6,19250260491.204765
11.65,19309252451.739506
11.7,20366567686.97355
11.75,22755921602.188725
11.8,28903562904.353004
11.85,45562861937.777054
11.9,79781790094.66415
11.95,118641881891.33955
12.0,132856624715.47491
12.05,123636810345.9614
12.1,110768657965.54385
12.15,100672978755.40466
12.2,92889574672.95352
12.25,86597038357.47906
12.3,80509987098.54515
12.35,75198323493.06139
12.4,71396031825.44159
12.45,68995897775.94179
12.5,68244350359.84301
12.55,68982585411.31937
12.6,69705777963.19127
12.65,69988115117.42427
12.7,70473056408.96237
12.75,71240226251.382
12.8,71385903921.07187
12.85,71464239157.00839
12.9,71210273592.8831
12.95,68414480074.797035
13.0,64908085395.78023
13.05,62745781184.69577
13.1,60244887623.20835
13.15,57029047943.485634
13.2,53995732023.8734
13.25,51412178315.03828
13.3,48891636165.238594
13.35,45998287394.71232
13.4,43541015662.88544
13.45,41287036537.50328
13.5,38453162479.6166
13.55,36227869278.77741
13.6,34484319252.88694
13.65,33332889464.53176
13.7,33487278410.304283
13.75,34118946209.65695
13.8,33478069232.245388
13.85,31482582541.967438
13.9,29049511719.15564
13.95,26713998728.692505
14.0,25162125415.069992
14.05,24518629487.576042
14.1,24387591883.68601
14.15,24269242384.33651
14.2,23819634025.884605
14.25,22774897757.198
14.3,21492611718.180393
14.35,20427594843.99099
14.4,19792711128.885147
14.45,19539008190.384594
14.5,19171502054.978752
14.55,18580443812.52459
14.6,17772849865.98699
14.65,16942456009.946089
14.7,16356362495.97975
14.75,16124085492.67553
14.8,16119753192.103283
14.85,16098823706.187233
14.9,15930097038.554178
14.95,15549514883.605934
15.0,15113435524.361311
15.05,14806190482.455051
15.1,14579941571.480198
15.15,14419226863.421844
15.2,14393729555.611696
15.25,14462194745.884726
15.3,14583086659.30684
15.35,14689248668.168283
15.4,14815118490.149818
15.45,14995879535.611212
15.5,15598057442.15467
15.55,17777840511.15621
15.6,22666266753.535988
15.65,28866606583.365826
15.7,32458678153.014053
15.75,32155321908.866043
15.8,30017351748.26228
15.85,27628539006.910248
15.9,25789032810.255283
15.95,24536660979.97531
16.0,23297189877.66089
16.05,21987745834.785618
16.1,20777933310.30248
16.15,19884399958.52169
16.2,19724208000.839447
16.25,20123069405.44338
16.3,20781671001.802235
16.35,21302459809.384068
16.4,21391089338.126137
16.45,21011143716.846504
16.5,20540474029.648575
16.55,20252465626.70385
16.6,20302056192.74148
16.65,20454650058.85189
16.7,20282291605.430847
16.75,19565455678.987614
16.8,18913439712.943974
16.85,18775880890.233772
16.9,18902143165.923286
16.95,18866609758.402454
17.0,18620271838.680157
17.05,18310511490.967396
17.1,18239055618.543716
17.15,18131073280.515022
17.2,17741374816.437008
17.25,17568063805.57379
17.3,17444636104.005188
17.35,17249958862.269188
17.4,17129728446.76409
17.45,17005925244.951221
17.5,16731300050.836079
17.55,16260690349.30396
17.6,16014425763.646688
17.65,16143017685.765541
17.7,16194832664.150894
17.75,16101755460.229559
17.8,16040298066.84187
17.85,15990795123.776485
17.9,15971299466.641289
17.95,16014815062.186045
18.0,16119227926.495554
18.05,16336090690.876469
18.1,16559865541.929121
18.15,16446347391.816534
18.2,16113798220.701298
18.25,15819588250.192747
18.3,15408159257.245203
18.35,14986839136.158154
18.4,14833420150.258497
18.45,14775748778.223015
18.5,14693653275.601007
18.55,14690069765.36081
18.6,14662554673.527695
18.65,14395227810.826881
18.7,14037712587.819147
18.75,13883285773.071098
18.8,13831488192.8345
18.85,13797693018.81081
18.9,13785163786.246147
18.95,13749216470.194359
19.0,13779313013.70837
19.05,13867940575.640032
19.1,13909774483.951944
19.15,13917985393.230581
19.2,13957026843.28607
19.25,14155795419.814655
19.3,14503510578.67958
19.35,14794456559.421423
19.4,14859192710.710024
19.45,14861814298.966805
19.5,14965137136.08825
19.55,15177266695.97468
19.6,15535731213.385267
19.65,15861307637.420195
19.7,16249003160.282232
19.75,16708884231.2299
19.8,17025197881.81792
19.85,17141660142.926363
19.9,16899210520.468735
19.95,16429748795.092047
20.0,16257018035.897635
20.05,16340500509.227177
20.1,16428688951.929392
20.15,16438351355.208618
20.2,16311199607.052935
20.25,16186276224.218784
20.3,16367503970.783339
20.35,16651118970.276035
20.4,16692248923.851309
20.45,16462055775.673271
20.5,16233659627.410261
20.55,16211874265.269806
20.6,16644858526.0823
20.65,17646899456.296043
20.7,19041431960.037537
20.75,20517149913.9152
20.8,21492930154.413803
20.85,21735084744.475887
20.9,21687244184.117596
20.95,21634948581.32291
21.0,21479955741.686813
21.05,21239698957.87492
21.1,20942297337.167625
21.15,20756756192.753925
21.2,20820918947.21779
21.25,20946958353.84735
21.3,20998481889.703068
21.35,20939417098.01137
21.4,21060174677.7182
21.45,21550657669.381054
21.5,22294113138.715115
21.55,23144822285.453667
21.6,24081633201.374508
21.65,24707346392.86845
21.7,24869240137.791267
21.75,25107328020.56626
21.8,25633945795.856407
21.85,26111076419.529896
21.9,26429621195.404373
21.95,26738557277.702538
22.0,26899526439.1487
22.05,26855101452.238827
22.1,26709013939.93912
22.15,26752308973.269985
22.2,27035430127.052444
22.25,27388255857.92133
22.3,27857032129.26353
22.35,28293640167.883244
22.4,28764562265.680283
22.45,29308913839.807335
22.5,29818634999.345715
22.55,30310049991.81349
22.6,30860098124.65592
22.65,31736364447.37655
22.7,32789764773.528397
22.75,33507239012.517273
22.8,34052851112.780373
22.85,35262883910.88522
22.9,37269064669.158676
22.95,39587659976.29511
23.0,41525101199.455536
23.05,42657503948.343025
23.1,43705084629.059105
23.15,44974649350.51119
23.2,46111921957.40282
23.25,47049083752.7227
23.3,48659449398.566444
23.35,50905612978.296684
23.4,52495112207.4388
23.45,53288382041.653854
23.5,53845055696.33519
23.55,54896515884.453896
23.6,55884808789.50963
23.65,56864148699.66127
23.7,58737410665.61589
23.75,60739716016.304276
23.8,61693630178.31609
23.85,62813005597.46442
23.9,64661553063.63206
23.95,66169191932.781586
24.0,67299538380.41723
24.05,67856040248.23567
24.1,66952348360.99425
24.15,65071965294.20182
24.2,64071471387.00722
24.25,63810824198.63307
24.3,63536343006.36838
24.35,63323932623.55916
24.4,62823396270.597664
24.45,63513056637.61302
24.5,65763719563.31541
24.55,66265535923.7836
24.6,64602771311.11601
24.65,63006297806.47031
24.7,62806750573.347305
24.75,62945199922.32726
24.8,63142266775.20977
24.85,64442505534.09272
24.9,66555061494.73637
24.95,69301830082.42516
25.0,73582993957.85944
25.05,80005972762.53183
25.1,89394730754.53911
25.15,101716437319.31439
25.2,112439268772.51125
25.25,120873823985.66794
25.3,127667321440.8445
25.35,135812070575.72209
25.4,142595188785.91513
25.45,145348399856.94727
25.5,142731917657.5904
25.55,137007070710.01483
25.6,129483161441.69554
25.65,116234909342.80638
25.7,100476256156.17516
25.75,86803616411.95729
25.8,76025892157.9467
25.85,68188876050.7286
25.9,60482145257.376045
25.95,53857347683.214584
26.0,48796757068.89749
26.05,45324646861.896515
26.1,44330336144.47375
26.15,44042357735.05698
26.2,43253255623.16284
26.25,42121192703.52695
26.3,40563365195.74224
26.35,38634186184.94467
26.4,36979921530.87656
26.45,36223368023.13556
26.5,35845788646.94413
26.55,35106476624.36142
26.6,34295601131.59142
26.65,33527240756.305954
26.7,32479843826.066235
26.75,31672481315.434986
26.8,31002355401.296597
26.85,30213219480.447044
26.9,29513570028.74336
26.95,29020925203.64503
27.0,28737839764.88151
27.05,28319857972.7918
27.1,27689205348.211525
27.15,27471146410.273064
27.2,27910638154.860683
27.25,28583364726.094666
27.3,28987279794.44786
27.35,28871330422.858627
27.4,28603046779.45765
27.45,28416118274.76405
27.5,28415612710.728233
27.55,28308494421.340137
27.6,27820993906.675835
27.65,27141336907.97653
27.7,26401842690.225403
27.75,25524093203.628357
27.8,24528049657.849155
27.85,23666717078.148773
27.9,22974540543.971035
27.95,22260891749.750847
28.0,21623236567.33281
28.05,21417928265.51522
28.1,21300645432.805244
28.15,20798477703.935562
28.2,20232425178.273758
28.25,19805229527.47948
28.3,19458718345.1243
28.35,19193252214.107204
28.4,18919508192.65342
28.45,18686196358.062706
28.5,18673368782.44563
28.55,18610490680.573498
28.6,18248744202.58721
28.65,17699153162.411877
28.7,17169578264.139606
28.75,16584334605.859093
28.8,15989780106.879713
28.85,15521122179.389233
28.9,15224355467.105852
28.95,15028741533.646198
29.0,14862375741.937254
29.05,14726404956.517971
29.1,14617348031.18642
29.15,14439449054.243586
29.2,14189619775.2899
29.25,13903132786.301786
29.3,13693546736.585526
29.35,13576219581.290878
29.4,13494390712.311476
29.45,13439032629.716373
29.5,13288434666.16482
29.55,13077650776.036093
29.6,12999027108.660738
29.65,13034623147.100203
29.7,13039678279.054577
29.75,12989207484.347248
29.8,12992162353.444695
29.85,13020328194.133186
29.9,12951645333.262129
29.95,12763399338.62298
30.0,12525549859.38693
30.05,12227978456.12405
30.1,11922381414.251575
30.15,11692449778.809052
30.2,11510405546.670517
30.25,11257375641.438131
30.3,11025432822.46422
30.35,10899738605.39181
30.4,10821398816.678265
30.45,10678318177.246344
30.5,10461735877.936218
30.55,10244392468.125402
30.6,10153661507.73602
30.65,10103905483.035603
30.7,10018258331.387135
30.75,9964882005.153814
30.8,9979929358.96615
30.85,10020422232.299135
30.9,10071124777.45103
30.95,10081467317.901436
31.0,9987868690.14886
31.05,9781570444.2649
31.1,9504203441.401339
31.15,9259200958.534157
31.2,9066219296.75071
31.25,8924223252.851274
31.3,8841503833.821098
31.35,8763025885.246044
31.4,8693983328.12789
31.45,8662216140.907667
31.5,8646193213.98742
31.55,8627215097.017273
31.6,8610610235.537804
31.65,8631356009.861496
31.7,8735999640.49788
31.75,8970252316.96555
31.8,9345736539.587446
31.85,9966356700.13261
31.9,10788629573.24385
31.95,11521805603.243792
32.0,11900192193.364735
32.05,11831901138.936117
32.1,11491353597.987234
32.15,11103255530.08816
32.2,10766379552.793175
32.25,10449101398.805382
32.3,10139649493.418821
32.35,9844574140.485102
32.4,9540663416.754679
32.45,9255967991.085281
32.5,9056911449.058886
32.55,8933555343.720375
32.6,8879742439.164614
32.65,8804669228.129997
32.7,8669007984.540232
32.75,8551422676.8985
32.8,8466626099.943348
32.85,8367361442.370934
32.9,8299858793.36326
32.95,8258604151.523529
33.0,8253869780.931404
33.05,8341751437.34122
33.1,8502194996.090915
33.15,8670357346.92693
33.2,8777631598.24362
33.25,8756918660.064098
33.3,8583267451.646968
33.35,8327373133.620768
33.4,8077092656.230566
33.45,7895341161.4277115
33.5,7791838144.4976225
33.55,7707705609.203563
33.6,7615030918.288174
33.65,7563937651.6832
33.7,7575433049.778503
33.75,7593505675.45861
33.8,7554774131.296302
33.85,7493801498.358156
33.9,7407358078.500893
33.95,7298630226.197358
34.0,7219105496.43806
34.05,7158151773.9064045
34.1,7066024388.949669
34.15,6978399982.527789
34.2,6955129274.288855
34.25,6954339175.534783
34.3,6961308832.905293
34.35,7042866992.21493
34.4,7227785429.778737
34.45,7484695726.836901
34.5,7756664889.533393
34.55,7968530292.649273
34.6,8054561930.031897
34.65,7993688477.180751
34.7,7830024530.942682
34.75,7653960636.383564
34.8,7477499871.225721
34.85,7278031415.539532
34.9,7087991786.853551
34.95,6927367989.051087
35.0,6822471567.669691
35.05,6742058507.476817
35.1,6648535480.815151
35.15,6568409973.106681
35.2,6538602762.330909
35.25,6548311771.570594
35.3,6517399025.32772
35.35,6467552104.619324
35.4,6430006280.152481
35.45,6395042983.703803
35.5,6394893102.561483
35.55,6469966497.00147
35.6,6586940878.568334
35.65,6755293297.004872
35.7,6981867652.653433
35.75,7237050302.579039
35.8,7470205892.745269
35.85,7626583599.659918
35.9,7721368285.540836
35.95,7819284242.896812
36.0,7892916182.0884495
36.05,7882031272.608079
36.1,7769037822.514362
36.15,7624806856.984697
36.2,7586908963.969752
36.25,7703112293.079601
36.3,7893634379.001013
36.35,8063954609.554117
36.4,8144445632.867935
36.45,8117042869.393023
36.5,8026950214.011233
36.55,7927860987.684474
36.6,7852239440.868368
36.65,7812672194.431228
36.7,7799933114.483308
36.75,7781000306.580274
36.8,7764442611.117585
36.85,7758280377.799341
36.9,7714695258.066647
36.95,7603553228.969472
37.0,7437098448.642532
37.05,7248926190.57048
37.1,7072498323.1879635
37.15,6917851093.779256
37.2,6790104555.362769
37.25,6715304797.932797
37.3,6730126102.48293
37.35,6840261693.424257
37.4,7049121508.7047205
37.45,7342532714.792829
37.5,7671505432.327012
37.55,7985820438.714649
37.6,8187408703.428101
37.65,8208072556.859543
37.7,8108841198.977349
37.75,8001067043.166963
37.8,7932435715.582485
37.85,7896048826.683736
37.9,7860975181.048766
37.95,7776898679.762127
38.0,7628363599.322231
38.05,7454174523.2569475
38.1,7321721770.010765
38.15,7248734185.172018
38.2,7209257458.671388
38.25,7148865623.078555
38.3,7037351874.330635
38.35,6908291791.0847645
38.4,6814734276.645987
38.45,6734911773.893463
38.5,6613013586.252281
38.55,6508507977.475187
38.6,6448528632.639343
38.65,6397959019.154803
38.7,6346021489.68496
38.75,6274331758.07557
38.8,6188008369.425887
38.85,6113426014.247751
38.9,6065576225.796177
38.95,6049507719.733302
39.0,6100186976.346361
39.05,6240040706.553219
39.1,6488786311.146421
39.15,6838814993.150844
39.2,7199755770.707937
39.25,7483456404.695123
39.3,7663311271.83084
39.35,7693421444.312437
39.4,7574015379.711562
39.45,7359569208.310382
39.5,7121718024.550925
39.55,6920895236.898786
39.6,6748066897.049232
39.65,6623803169.540696
39.7,6577571875.037282
39.75,6597151260.250219
39.8,6667145071.190447
39.85,6773167951.487667
39.9,6863066584.4365
39.95,6924749974.401366
40.0,6972327235.498747
40.05,7011584535.569018
40.1,7051314169.581549
40.15,7072378662.13902
40.2,7094458415.585749
40.25,7131123089.292369
40.3,7139663118.059116
40.35,7129695016.185162
40.4,7126885097.758898
40.45,7112061441.454784
40.5,7091041802.0043125
40.55,7131727474.084988
40.6,7271159658.266851
40.65,7470375052.764969
40.7,7679030208.85348
40.75,7880572883.767648
40.8,8046421059.76666
40.85,8139962000.953865
40.9,8144862527.751464
40.95,8061791121.793337
41.0,7913856825.021115
41.05,7712015370.611722
41.1,7490361939.270383
41.15,7296893828.703935
41.2,7190672919.212714
41.25,7172659055.845729
41.3,7215488967.436325
41.35,7360318983.999403
41.4,7624099481.212159
41.45,7928979729.454412
41.5,8216152108.646953
41.55,8439075588.01698
41.6,8551770835.45043
41.65,8548333540.564467
41.7,8457842453.896094
41.75,8316016016.797089
41.8,8159242366.399904
41.85,8067021573.012657
41.9,8099194296.668233
41.95,8269971240.017383
42.0,8606823424.510378
42.05,9213009241.768507
42.1,10188465980.822739
42.15,11403342422.78978
42.2,12588937363.961885
42.25,13561082570.333712
