2theta,Intensity
0.0,6913075.095759322
0.05,7415616.492780238
0.1,12479512.719629345
0.15,13068520.039718226
0.2,13700230.959731642
0.25,14378875.329377988
0.3,15109219.948169557
0.35,15896652.479559004
0.4,16747281.07165817
0.45,17668053.136135686
0.5,18666897.61415198
0.55,19752896.190335322
0.6,20936490.386717595
0.65,22229733.393143095
0.7,23646598.02772406
0.75,25203355.59181294
0.8,26919044.900301777
0.85,28830582.337183654
0.9,31437064.250004232
0.95,37005958.15488929
1.0,43242289.94519908
1.05,48912579.25363933
1.1,53447133.92163306
1.15,57829657.62127243
1.2,62718755.009614125
1.25,68279853.6068981
1.3,74652408.52288322
1.35,82007243.59378724
1.4,90563403.02408661
1.45,100605603.90426472
1.5,112509557.83955105
1.55,126779498.42890695
1.6,144105135.65427276
1.65,166758004.41017938
1.7,194001458.58942673
1.75,228267234.23446405
1.8,273075141.6411217
1.85,333337066.9304957
1.9,417205190.9868392
1.95,539007294.5137758
2.0,726332264.3392385
2.05,1051621361.0874479
2.1,1854409108.02459
2.15,4591283620.038665
2.2,11917826742.236551
2.25,23383293538.77964
2.3,27905231520.52884
2.35,22399038053.473568
2.4,13724607926.101841
2.45,8249399812.776341
2.5,6344208494.286312
2.55,5929675414.096425
2.6,5922648835.092317
2.65,6060829896.755659
2.7,6305797118.189329
2.75,6691830096.707601
2.8,7159369461.960935
2.85,7668160231.255057
2.9,8262643106.680847
2.95,8948973949.224316
3.0,9817445546.70401
3.05,11322340915.747402
3.1,14740628525.547144
3.15,21493786983.109116
3.2,29300658886.07773
3.25,32109417582.963875
3.3,28825336679.00966
3.35,23425496915.390255
3.4,19898614796.742535
3.45,19143920866.648033
3.5,20047820591.191704
3.55,21717460270.91988
3.6,23866845921.47057
3.65,26484915329.544098
3.7,29656093993.91679
3.75,33569411270.333366
3.8,38695624092.07034
3.85,45830322050.11652
3.9,54712819631.46975
3.95,63047553952.22588
4.0,72536871361.14787
4.05,86611726136.2748
4.1,106981351470.77272
4.15,136086774043.11394
4.2,178974350645.94022
4.25,245755316250.0006
4.3,362197905504.5558
4.35,649049766434.9763
4.4,1679575150761.8633
4.45,4656317343626.305
4.5,8857090739262.73
4.55,8481809702005.572
4.6,4209227893452.9966
4.65,1500691832156.8699
4.7,613757503816.8009
4.75,366485653943.65656
4.8,270136531953.72797
4.85,240229908090.82892
4.9,292266028222.19305
4.95,452909095268.46094
5.0,650414778538.6604
5.05,730558979518.9336
5.1,676772373518.3292
5.15,562754114889.5352
5.2,402730132445.79083
5.25,238552089378.19708
5.3,129033470760.28491
5.35,76393306683.04994
5.4,54121768640.8145
5.45,43434336145.56681
5.5,37005197409.516304
5.55,32573816876.60074
5.6,29429230709.252174
5.65,27078097702.808037
5.7,25410278033.461163
5.75,24364339927.26209
5.8,24054857814.309822
5.85,25037774538.82376
5.9,28545164743.180893
5.95,34598082019.65042
6.0,38416300899.838234
6.05,38594509270.05092
6.1,41407658122.7913
6.15,51544507175.65957
6.2,78501990748.25897
6.25,140104615888.6084
6.3,250630411071.4275
6.35,393308503308.02264
6.4,520285548796.67426
6.45,609475089634.6296
6.5,685828674230.7451
6.55,763603463527.2196
6.6,788842194108.3159
6.65,681916502631.3982
6.7,468592044278.94006
6.75,262261785402.06915
6.8,132648032954.6678
6.85,68184785438.90816
6.9,40261229144.1064
6.95,28240640192.54012
7.0,22331368299.423553
7.05,18663396223.578682
7.1,16024196090.23367
7.15,14222627223.95293
7.2,13207431813.944191
7.25,12801189154.193398
7.3,12732671289.741615
7.35,12845314103.593115
7.4,13072298994.71826
7.45,13346442547.091505
7.5,13711022225.233408
7.55,14536434572.261845
7.6,16366343167.107368
7.65,20842907128.848537
7.7,36243074039.91018
7.75,85137566915.49098
7.8,172675232703.21057
7.85,204627612067.41876
7.9,130368084510.44817
7.95,72198904391.90886
8.0,74700173368.38942
8.05,120844029084.72336
8.1,180750938734.35632
8.15,224743810258.6184
8.2,237684554363.42813
8.25,221340598963.80774
8.3,185817280045.895
8.35,140858211308.9077
8.4,101050269463.38011
8.45,73082623819.498
8.5,51604448842.32213
8.55,34380415339.2801
8.6,22683361941.43425
8.65,16542384426.495409
8.7,14473754839.79388
8.75,15777055126.650513
8.8,21481298630.06901
8.85,33571404136.63984
8.9,53133680720.36188
8.95,82999860580.4486
9.0,128549254309.38231
9.05,170753488741.36465
9.1,175843569126.33
9.15,176510409186.10025
9.2,201017595726.47205
9.25,235825968027.90988
9.3,240404449971.67642
9.35,198843363857.02512
9.4,137930858985.97748
9.45,85579381955.69876
9.5,50213671337.48061
9.55,30280639411.367283
9.6,20802484429.60134
9.65,16826611053.128487
9.7,15147836046.579924
9.75,14698263817.674187
9.8,16374529391.240637
9.85,22209482907.094223
9.9,34381998176.440544
9.95,54218587876.751816
10.0,78991790029.1629
10.05,102722763785.73788
10.1,123748013187.34872
10.15,148401846097.0522
10.2,181716915593.02594
10.25,219122435467.69717
10.3,243102228468.91864
10.35,239426089739.62476
10.4,207796038574.18732
10.45,162617877050.40045
10.5,121694806811.65764
10.55,89760258000.94896
10.6,64067552709.71468
10.65,44489574800.62428
10.7,31647772115.733204
10.75,23799273774.652576
10.8,18561880296.42361
10.85,15022759617.730217
10.9,13363314572.009924
10.95,13968954923.009745
11.0,17396044494.267822
11.05,24790666979.426228
11.1,36834500273.09276
11.15,52122794682.46711
11.2,67609549963.78102
11.25,78414518423.177
11.3,81902767377.5323
11.35,78600155488.83134
11.4,69972807389.15114
11.45,58579112842.05542
11.5,47631837979.89257
11.55,40229107964.70056
11.6,34860080162.23642
11.65,29398608506.347946
11.7,23802369341.202408
11.75,18734223720.211437
11.8,14876535492.919237
11.85,13747989536.970577
11.9,17257294280.251728
11.95,24886312319.798985
12.0,28803177277.734547
12.05,28167806536.60686
12.1,31985049032.912323
12.15,38351913090.56131
12.2,42491427484.38052
12.25,44299501447.07961
12.3,45234772351.385666
12.35,44914882492.79533
12.4,43594834968.94815
12.45,42271827282.96812
12.5,40460876868.29171
12.55,38456568640.007965
12.6,37953265519.733665
12.65,39851657234.30011
12.7,43872137786.97362
12.75,49868069511.3223
12.8,57943017329.664154
12.85,67505325250.68072
12.9,77290428155.90305
12.95,86618883804.82713
13.0,93432096334.46606
13.05,93079267201.23872
13.1,81981149852.7403
13.15,64647742992.4221
13.2,48623569546.11841
13.25,37707753078.71304
13.3,30564728419.62612
13.35,25312309372.032967
13.4,22117257178.500175
13.45,22349267622.13751
13.5,27120825120.0489
13.55,35381446681.03133
13.6,44810672945.38892
13.65,52576873836.707115
13.7,57861800793.72825
13.75,61523783030.18809
13.8,63243635436.04986
13.85,62339930335.38273
13.9,58594433394.83011
13.95,52840524300.83116
14.0,46576056188.17778
14.05,41118527976.10675
14.1,36933314316.117744
14.15,33111662139.5396
14.2,28632253338.663345
14.25,23920206035.698017
14.3,20176838198.71479
14.35,18044168318.896133
14.4,16964119706.730072
14.45,16497550434.364685
14.5,16617137906.393991
14.55,17133130726.579664
14.6,17768696241.12657
14.65,18212675674.516685
14.7,18411813076.29965
14.75,18364419357.752037
14.8,17862557629.440598
14.85,17216456145.64589
14.9,16949039646.823174
14.95,16805294241.632423
15.0,16493991193.213438
15.05,15983992553.39132
15.1,15741919315.138025
15.15,15952694979.56351
15.2,16588655124.189789
15.25,17715783674.043343
15.3,19601153495.701992
15.35,21716056394.415604
15.4,23424037006.40791
15.45,25053421936.45076
15.5,26196309345.285
15.55,26431190059.018776
15.6,28271701538.38564
15.65,35288724794.86143
15.7,42088004020.71017
15.75,36358557942.6583
15.8,24721979910.13339
15.85,17277612276.65029
15.9,14342250163.055182
15.95,13404051649.678516
16.0,12313080792.820816
16.05,10562379465.492828
16.1,9473986236.348255
16.15,10146088766.19059
16.2,12689906815.485405
16.25,16825653453.994596
16.3,22100121830.282158
16.35,27460449520.36878
16.4,30558946976.693504
16.45,31410076711.313175
16.5,31896166227.517643
16.55,32424175011.183464
16.6,32323897678.5201
16.65,30968116061.416214
16.7,28523004221.291393
16.75,26159486417.594418
16.8,24756373882.04083
16.85,24099930332.970505
16.9,23457742906.118298
16.95,22316341455.6127
17.0,21298479373.65032
17.05,20633785180.920555
17.1,20168644349.150757
17.15,19544564658.21443
17.2,18229231088.12401
17.25,16051323923.840927
17.3,13321403343.05104
17.35,10853458988.85908
17.4,9193434207.310028
17.45,8077789154.432089
17.5,7264155127.31781
17.55,6642263785.301611
17.6,6109870077.444844
17.65,5840091693.346908
17.7,5994874078.519497
17.75,6450644718.663018
17.8,7060293390.566008
17.85,7931125683.255566
17.9,9120596596.980015
17.95,10445315107.613972
18.0,11556710360.499466
18.05,12538781643.47787
18.1,13204620510.532413
18.15,13547039455.958858
18.2,13697841139.344494
18.25,13614079869.78033
18.3,13414077124.7188
18.35,13153593935.507938
18.4,12811162060.391262
18.45,12549279485.25311
18.5,12458282319.716736
18.55,12357473713.728241
18.6,12187353706.73988
18.65,12151046618.329597
18.7,12222212373.314024
18.75,12382497100.551723
18.8,12668443116.074442
18.85,13016628960.953974
18.9,13254591381.597916
18.95,13412349098.762781
19.0,13491535503.281559
19.05,13432467066.540094
19.1,13477496428.495201
19.15,13642198061.389004
19.2,13627657306.674473
19.25,13357377468.497145
19.3,13138164249.276535
19.35,13400755607.943981
19.4,14117548550.661724
19.45,14885978284.404663
19.5,15583037579.097769
19.55,16062167963.67217
19.6,16376509507.285225
19.65,16473034373.912558
19.7,16957224762.288937
19.75,18488778794.530132
19.8,20110459968.278954
19.85,20071716341.071083
19.9,18967874122.55062
19.95,18273501317.282566
20.0,18323388725.504654
20.05,18840201359.18073
20.1,19250412227.69007
20.15,19531749242.251698
20.2,19993097281.17054
20.25,20955407360.196102
20.3,22201915142.96595
20.35,23724229489.741623
20.4,25601678670.263844
20.45,27751801753.282726
20.5,29866138625.357376
20.55,31351853364.474503
20.6,32160392018.39133
20.65,33045775545.69759
20.7,34040485570.274258
20.75,34362272883.94458
20.8,33556573347.95326
20.85,31700731974.18772
20.9,28148973279.52461
20.95,23722502531.59476
21.0,19930128945.93127
21.05,17293571852.78049
21.1,15600176186.302174
21.15,14377628312.893744
21.2,13603096866.44239
21.25,13483989087.162529
21.3,14073857823.753763
21.35,15188390607.996622
21.4,16546538103.428465
21.45,17925006511.793346
21.5,19192108720.445007
21.55,20446276205.564617
21.6,21567108387.76591
21.65,22482050561.462795
21.7,23381380953.181747
21.75,24078591332.228245
21.8,24482996909.711178
21.85,24591508743.93247
21.9,24520881282.099064
21.95,24458285774.050766
22.0,24534232916.36164
22.05,24446225497.033123
22.1,24188088081.743732
22.15,24201014012.72258
22.2,24631653169.12242
22.25,24749672292.83319
22.3,24215918463.626747
22.35,23569609789.866253
22.4,23021016318.659355
22.45,22621010465.389465
22.5,22504145675.857548
22.55,22830821602.462673
22.6,23838657603.603817
22.65,25559027896.374638
22.7,27879237405.57426
22.75,30184682420.420986
22.8,31691537070.217453
22.85,32457165183.54378
22.9,32521740667.47694
22.95,31669754449.186108
23.0,30170202075.42915
23.05,28373674910.037518
23.1,26755308411.320354
23.15,25780715426.158813
23.2,25533627975.484623
23.25,25480846574.97018
23.3,25330971932.565098
23.35,25021316668.210365
23.4,24799626740.561626
23.45,25048654221.16407
23.5,26065199729.879875
23.55,28664973979.28236
23.6,33330535576.09818
23.65,39904104166.68506
23.7,47603611594.423134
23.75,54859252423.749916
23.8,61176708058.95828
23.85,66580976574.8639
23.9,71130625120.1431
23.95,74386116108.04199
24.0,75500996531.69556
24.05,74670974954.06506
24.1,72406370539.10979
24.15,68696326804.12487
24.2,63832152204.36694
24.25,58358404277.89344
24.3,53348210715.00937
24.35,50883074979.50503
24.4,50747180610.25818
24.45,51660031365.88923
24.5,53068553864.38847
24.55,54886269160.94774
24.6,56834937947.62405
24.65,58155197349.49688
24.7,59200342618.89879
24.75,60334400058.97523
24.8,61055048634.432526
24.85,60526861503.041954
24.9,58324114954.2675
24.95,54864030377.75585
25.0,50117682014.09389
25.05,45021400277.72133
25.1,40771518725.51791
25.15,37570117260.29872
25.2,34451068342.19073
25.25,31116025167.7672
25.3,27690524781.66939
25.35,24671024608.698986
25.4,22650990666.827526
25.45,21416775074.55655
25.5,20599622832.688942
25.55,20101530378.985226
25.6,19764352364.092945
25.65,19708448172.141544
25.7,20121859534.361153
25.75,21050053545.94374
25.8,22572680129.705284
25.85,24439685351.1992
25.9,26360174325.052185
25.95,28066861545.22223
26.0,29310311829.69535
26.05,30053912349.71209
26.1,30066385758.07228
26.15,29749089036.050743
26.2,29378353029.910885
26.25,29098444114.32539
26.3,28691288733.577473
26.35,28205893753.814888
26.4,27781535698.547504
26.45,27183480210.115616
26.5,26287910355.184063
26.55,25042246917.158478
26.6,23657434048.843426
26.65,22319354431.092205
26.7,21212461696.788334
26.75,20238090321.541767
26.8,19331752928.58085
26.85,18654115721.883823
26.9,18198134852.626587
26.95,17788617774.762142
27.0,17301767911.02661
27.05,16629473705.92463
27.1,15796587579.974154
27.15,14985301118.644989
27.2,14479323524.118832
27.25,14623032448.792679
27.3,15841424110.404953
27.35,17883324218.49224
27.4,18979778620.451508
27.45,18115718139.301353
27.5,16559240180.37603
27.55,15331744183.703432
27.6,14442073555.464565
27.65,13674606401.391792
27.7,13122953219.757387
27.75,13020368022.252592
27.8,13298868779.986914
27.85,13814033632.230005
27.9,14713419053.510157
27.95,16288108020.617641
28.0,19359408676.477257
28.05,26176549890.2184
28.1,39278898627.63894
28.15,58730697763.99162
28.2,82538118469.25
28.25,104028721098.25325
28.3,118742544738.1621
28.35,127280699035.34563
28.4,127126919105.84804
28.45,118147749618.41783
28.5,103379825558.08556
28.55,86774042112.50401
28.6,71639024610.03725
28.65,60996827797.50776
28.7,54795225260.79496
28.75,51442718935.81651
28.8,49078817515.19335
28.85,46163782705.6675
28.9,42027168046.232956
28.95,37089756976.22559
29.0,31372934356.255367
29.05,25912258691.71184
29.1,21575019685.162823
29.15,18203673394.29074
29.2,15622129162.572035
29.25,13895411112.80109
29.3,12837365673.983904
29.35,12158624986.718437
29.4,11704186277.837448
29.45,11358763760.912973
29.5,11066020043.077171
29.55,10788961844.108889
29.6,10440926508.505844
29.65,10053753723.167128
29.7,9713841214.057608
29.75,9406819165.12053
29.8,9007473314.348387
29.85,8521934152.340112
29.9,8121592514.241139
29.95,7827743091.3572035
30.0,7545102440.445326
30.05,7210088158.300218
30.1,6919736757.375618
30.15,6710537607.814587
30.2,6502866505.249475
30.25,6244144354.514793
30.3,5985281752.869846
30.35,5788113473.75682
30.4,5711142820.0019455
30.45,5750888000.024003
30.5,5931140535.334188
30.55,6292192205.18129
30.6,6834049694.456555
30.65,7462436818.5495615
30.7,8033490411.357412
30.75,8556597348.707286
30.8,8990676045.817371
30.85,9201880844.712149
30.9,9211110930.318962
30.95,9054419271.711678
31.0,8729302679.998032
31.05,8294178338.651541
31.1,7888310395.501101
31.15,7523574642.506036
31.2,7127717282.479091
31.25,6722640684.1625595
31.3,6396768360.831945
31.35,6163275992.127851
31.4,5956785629.382669
31.45,5718386844.332108
31.5,5474676269.862222
31.55,5290791735.625013
31.6,5144345939.673136
31.65,4996304905.79739
31.7,4869126198.039153
31.75,4792875194.056928
31.8,4766177657.100881
31.85,4854180201.157637
31.9,5354290496.85758
31.95,6872311957.868077
32.0,9672605122.853176
32.05,12283145867.232567
32.1,12477170594.412062
32.15,10629689267.070501
32.2,8687728187.443026
32.25,7317761827.119587
32.3,6332952099.549906
32.35,5586209660.274905
32.4,5174995800.022276
32.45,5081384329.561463
32.5,5104096694.168474
32.55,5079465310.993443
32.6,4987847336.727046
32.65,4850051433.605903
32.7,4651309082.4461975
32.75,4464208466.452165
32.8,4348154072.815846
32.85,4330747349.384042
32.9,4425456741.311006
32.95,4608562790.142683
33.0,4836877459.497707
33.05,5104979895.324776
33.1,5342877329.145255
33.15,5489107669.77836
33.2,5588403284.05572
33.25,5690049495.686501
33.3,5757893416.441356
33.35,5737824430.125433
33.4,5707541019.76121
33.45,5690796015.439932
33.5,5663617216.828642
33.55,5644351945.955175
33.6,5664043081.429531
33.65,5709580550.694234
33.7,5748649587.622113
33.75,5745005119.367608
33.8,5629067142.156924
33.85,5417098813.676857
33.9,5168108578.578027
33.95,4935181525.596576
34.0,4738105905.345157
34.05,4561217780.2799015
34.1,4439622027.989736
34.15,4393639642.8453665
34.2,4379810829.274215
34.25,4399258553.103245
34.3,4432258893.389463
34.35,4457259416.458327
34.4,4488699736.998588
34.45,4542238737.201871
34.5,4644671700.408301
34.55,4901024248.312676
34.6,5362001421.202789
34.65,5745228851.830099
34.7,5731132959.04836
34.75,5405743200.937015
34.8,4999643602.428691
34.85,4624500357.761792
34.9,4315703269.279757
34.95,4090721479.63052
35.0,3980544242.8538074
35.05,3955061507.783446
35.1,3929746903.5868697
35.15,3851952991.2864904
35.2,3762421582.5766077
35.25,3684561594.5620027
35.3,3646320060.8164105
35.35,3667780398.2596183
35.4,3720444381.6922946
35.45,3799315698.7943006
35.5,3914370809.4820547
35.55,4045067180.1142974
35.6,4177374178.685418
35.65,4311463341.932011
35.7,4435865343.3379755
35.75,4609632710.665332
35.8,4933061954.525057
35.85,5323288748.183308
35.9,5524915314.225126
35.95,5406729125.427877
36.0,5155612868.869269
36.05,5017067884.476538
36.1,4987814449.663636
36.15,4939374362.242462
36.2,4819954703.90454
36.25,4686097348.539615
36.3,4614591786.815912
36.35,4631893109.321247
36.4,4765293618.185279
36.45,4992413551.679899
36.5,5210534632.891542
36.55,5307517222.688166
36.6,5307316242.767636
36.65,5397070474.826168
36.7,5745146616.019534
36.75,6275396031.848819
36.8,6583128391.490619
36.85,6404520857.407928
36.9,5980330679.311466
36.95,5603550295.691875
37.0,5325044926.833561
37.05,5120343456.266257
37.1,4982689307.450623
37.15,4907610339.745354
37.2,4840533906.958399
37.25,4745847570.861279
37.3,4639870157.726654
37.35,4540452328.80203
37.4,4464821284.423023
37.45,4456890409.62939
37.5,4555402052.866038
37.55,4786367876.112825
37.6,5186625625.380791
37.65,5660777446.662243
37.7,5942180786.671046
37.75,5919378777.344519
37.8,5701071423.615157
37.85,5485342057.720534
37.9,5360242051.53383
37.95,5331802705.235974
38.0,5374826040.345122
38.05,5391308873.865049
38.1,5329347728.8340645
38.15,5229040593.504975
38.2,5132816206.187955
38.25,5037174161.549048
38.3,4941843453.555578
38.35,4884662973.61368
38.4,4859874149.079294
38.45,4834682489.89217
38.5,4773451340.964709
38.55,4667717071.270844
38.6,4545862205.943125
38.65,4415431666.816335
38.7,4269016043.394251
38.75,4126642787.157774
38.8,4029099371.4743333
38.85,3985058939.919674
38.9,3975684329.199401
38.95,3987351513.6579647
39.0,4009578800.2437
39.05,4042563849.2376366
39.1,4087506507.1151085
39.15,4158737719.1894298
39.2,4276334273.347581
39.25,4527965930.04257
39.3,5028703789.189961
39.35,5698470393.75197
39.4,6174723540.302505
39.45,6189359266.895118
39.5,5888269106.546319
39.55,5539886888.19314
39.6,5278185883.614323
39.65,5135926099.890498
39.7,5113904940.246849
39.75,5170561582.340481
39.8,5235547096.895656
39.85,5255407065.233846
39.9,5277210090.856067
39.95,5317962261.318911
40.0,5356291870.528103
40.05,5389545819.448004
40.1,5402626286.230337
40.15,5415043764.483496
40.2,5448443849.592911
40.25,5417406257.502063
40.3,5301439774.526109
40.35,5185683457.142659
40.4,5115646907.629941
40.45,5070528404.899841
40.5,5050906043.685133
40.55,5068834127.474869
40.6,5116584020.470283
40.65,5215187988.916101
40.7,5362275660.437969
40.75,5529132561.251791
40.8,5706359356.678639
40.85,5861193864.422359
40.9,5953661014.334668
40.95,6040881919.1087055
41.0,6170538619.723253
41.05,6228136857.377914
41.1,6107931904.178223
41.15,5855961289.207696
41.2,5597608442.598176
41.25,5410854504.584999
41.3,5309801351.60677
41.35,5266171484.248718
41.4,5250658323.350684
41.45,5284344805.217497
41.5,5405394769.3952875
41.55,5620986655.677813
41.6,5872420475.921929
41.65,6032230057.751933
41.7,6043756869.21844
41.75,5948199508.912805
41.8,5799503539.873403
41.85,5675787575.537605
41.9,5607106470.758667
41.95,5577406751.94207
42.0,5559107376.801495
42.05,5527614664.508506
42.1,5490202683.611044
42.15,5523220541.690633
42.2,5766936530.744902
42.25,6484866263.69229
42.3,7980758231.447438
