2theta,Intensity
0.0,12941519.235136403
0.05,18043335.375198193
0.1,22637172.720402468
0.15,26085842.694757517
0.2,27655786.065364312
0.25,29055260.011209823
0.3,30581013.128849972
0.35,32675712.999689948
0.4,35446533.047773786
0.45,38646543.19238329
0.5,41924010.798844166
0.55,45671639.074854635
0.6,50377563.189679086
0.65,55815951.13193929
0.7,61946958.818826295
0.75,69558689.1574344
0.8,76304992.7139421
0.85,82206758.94145116
0.9,88325896.15169017
0.95,95077940.44609453
1.0,102603702.39601304
1.05,111217666.43232153
1.1,120679478.93999957
1.15,131359283.16292672
1.2,143639985.14616123
1.25,157446109.84825724
1.3,173286856.3433157
1.35,191493055.41422248
1.4,212860185.8842006
1.45,237964666.5958987
1.5,267794197.585931
1.55,303679366.10013056
1.6,347688464.0666055
1.65,404304681.8657308
1.7,475661726.4147461
1.75,570544602.1633077
1.8,697950664.1446033
1.85,875168404.6485045
1.9,1136150546.6955829
1.95,1561626821.3218381
2.0,2491026233.8627615
2.05,5431283733.5371275
2.1,13622563120.594727
2.15,26348053501.509254
2.2,31676903073.812145
2.25,30382354839.722866
2.3,30394620049.872295
2.35,27588290004.469288
2.4,20463840433.559586
2.45,13210558331.488102
2.5,9767507587.675127
2.55,9859617745.133446
2.6,12079926218.75101
2.65,14772897155.262259
2.7,16672549441.963684
2.75,18258605047.419983
2.8,20880047278.00194
2.85,24564037242.695503
2.9,28211025848.356674
2.95,30882930358.12866
3.0,30994587483.847866
3.05,27065428460.410667
3.1,22028258226.281914
3.15,19117422211.519726
3.2,18613805123.249763
3.25,19525599577.24166
3.3,20742172858.25007
3.35,21869611912.586784
3.4,23321337340.629723
3.45,24894743250.91867
3.5,26330765445.79257
3.55,27878293189.48427
3.6,29781747976.74907
3.65,32107847519.088264
3.7,34661149423.79659
3.75,37553066802.68931
3.8,41657915668.47438
3.85,48382241621.4815
3.9,57837610990.924965
3.95,68310024328.28097
4.0,79765207738.32314
4.05,90798400635.25414
4.1,102352032941.04732
4.15,118565747089.55963
4.2,144085468186.93195
4.25,184347430853.7642
4.3,249831427028.60373
4.35,379817274188.6055
4.4,741532859917.4404
4.45,1733597544387.7468
4.5,3542865824807.047
4.55,5273492640959.056
4.6,6080122680210.716
4.65,6046404057958.885
4.7,5544573633810.431
4.75,4621555033648.859
4.8,3363752964503.44
4.85,2172561711027.1995
4.9,1326049402449.148
4.95,861146978294.6615
5.0,673631055294.8014
5.05,652323352223.0784
5.1,725317951498.5819
5.15,819611942951.9883
5.2,875024403103.9636
5.25,878236487833.2383
5.3,865190876703.4487
5.35,858441030930.357
5.4,839234045860.1512
5.45,778622044294.4733
5.5,685032419135.5896
5.55,579735423887.8359
5.6,469554842007.9301
5.65,374032069195.79407
5.7,306779657499.96045
5.75,264013626204.05563
5.8,229781288965.03226
5.85,201971508277.04926
5.9,182959696481.42432
5.95,172316016134.13702
6.0,157464202313.88342
6.05,132375049289.42213
6.1,104378561741.7096
6.15,81056371411.9459
6.2,65136717898.08892
6.25,55256914300.07977
6.3,48497715457.34301
6.35,44483645124.0479
6.4,43952754843.970985
6.45,45174701255.415535
6.5,46880645466.27075
6.55,47155103404.507
6.6,44854183520.873215
6.65,42398722775.313515
6.7,41519378177.80964
6.75,42006590578.03434
6.8,44078199346.26165
6.85,46328704729.42766
6.9,46869435351.690605
6.95,45519640073.69546
7.0,43893363049.13416
7.05,43618272486.70246
7.1,43671270769.74261
7.15,44215233019.98454
7.2,45135084285.83613
7.25,46404735213.761215
7.3,48254098514.92685
7.35,49424255437.42096
7.4,48051942172.29291
7.45,44262743429.94506
7.5,40621883144.91688
7.55,38452001556.961555
7.6,37884430877.92432
7.65,41193645874.36842
7.7,57681606721.46658
7.75,102962728311.27347
7.8,166899625589.37903
7.85,197636099950.75378
7.9,207139547374.2017
7.95,236317568495.3746
8.0,278449086319.0263
8.05,317537051880.33386
8.1,347086771322.8902
8.15,345379940837.2217
8.2,313623864692.0278
8.25,262074582698.0248
8.3,200170502647.86172
8.35,151247969709.12808
8.4,119593660373.42352
8.45,100183883803.05637
8.5,92787495995.17535
8.55,94677787935.68054
8.6,104195643520.15651
8.65,115935398139.36244
8.7,123975025588.94817
8.75,127008349572.30092
8.8,128031117843.5251
8.85,135035043339.15303
8.9,155433429428.23633
8.95,195700336209.297
9.0,244384494305.65015
9.05,255378600980.18124
9.1,230434116010.98132
9.15,210514555973.5003
9.2,200462035619.79172
9.25,194302628133.79373
9.3,195099477727.15707
9.35,203843852078.7463
9.4,215421342943.33292
9.45,219476687135.7404
9.5,212968745876.09988
9.55,196446499597.51852
9.6,174494582301.3677
9.65,154583054942.61688
9.7,139360723731.82437
9.75,126903756741.77725
9.8,117570117046.6066
9.85,109027902728.15645
9.9,101646479659.186
9.95,95740179233.38295
10.0,88514913608.73978
10.05,80613708433.40935
10.1,74366488834.23775
10.15,69854812372.39862
10.2,68457939962.89487
10.25,69677905480.71764
10.3,70489137886.08302
10.35,69818756789.41124
10.4,67725712287.83388
10.45,64231163615.54116
10.5,60300821284.91456
10.55,56150367444.008484
10.6,51883836765.21639
10.65,49163586008.50144
10.7,47824140397.257164
10.75,46619022792.3782
10.8,44396631553.22032
10.85,41505601031.09311
10.9,37620274493.27579
10.95,33580771096.697384
11.0,30435415436.79974
11.05,28163433392.377792
11.1,26345293880.69571
11.15,24556655812.5281
11.2,22904936473.523716
11.25,21832362375.185947
11.3,21269246611.00714
11.35,20808247296.800484
11.4,20622112659.81308
11.45,20710373242.842487
11.5,20532118690.81918
11.55,20484134473.48749
11.6,21115227728.981228
11.65,21794641437.26534
11.7,22336436864.887047
11.75,23448791384.670578
11.8,28367853326.529
11.85,45168543428.82072
11.9,79557507346.5466
11.95,113326705183.39192
12.0,118866938695.21089
12.05,101950131858.50394
12.1,83020449269.56424
12.15,70845219611.8967
12.2,64811470601.17301
12.25,63604585098.64455
12.3,65877895207.695145
12.35,69712808912.98701
12.4,74211520084.97972
12.45,78662246373.25987
12.5,80890017622.82358
12.55,80948043578.01233
12.6,79516167103.84608
12.65,77114806547.61353
12.7,74096033964.11774
12.75,70214497447.64354
12.8,66273673868.122025
12.85,63816118946.78441
12.9,64036684284.019806
12.95,65262452567.80391
13.0,65479207685.373116
13.05,64281349314.579346
13.1,62326367388.34837
13.15,60154299376.12592
13.2,58514681393.81524
13.25,57621346797.30899
13.3,56384986200.45417
13.35,53664383742.84532
13.4,49140911208.437744
13.45,44328993030.751465
13.5,41262389994.65275
13.55,39725778092.99334
13.6,38117923680.01672
13.65,36104769927.76496
13.7,33900251907.01108
13.75,31261554984.911945
13.8,28686171794.702957
13.85,27372560626.531456
13.9,26915737438.888706
13.95,26188507947.40885
14.0,25306332400.99811
14.05,24380822663.444668
14.1,23202791366.046364
14.15,22251197166.571575
14.2,21587936993.436005
14.25,20944461608.77476
14.3,20229159103.878304
14.35,19420993835.445908
14.4,18371313428.001785
14.45,17661426121.129494
14.5,17178941311.361225
14.55,16459131932.306551
14.6,15660593350.649418
14.65,15223412930.295448
14.7,14960569634.22019
14.75,14706627124.020777
14.8,14454657771.418726
14.85,14054751655.080416
14.9,13507690802.108112
14.95,12895293630.657959
15.0,12415321934.044535
15.05,12288171298.449772
15.1,12309232698.3078
15.15,12198953607.842716
15.2,11889040735.723467
15.25,11581508227.707554
15.3,11284715607.343313
15.35,11037985083.576582
15.4,10906014949.24635
15.45,11048481147.450424
15.5,12078803326.661936
15.55,15340318721.487648
15.6,21544226071.532223
15.65,27846463473.995953
15.7,29553531155.506577
15.75,27055288745.14125
15.8,23929760229.951412
15.85,21400863154.901054
15.9,19626275402.921127
15.95,18613296696.016407
16.0,17938243730.593155
16.05,17289784780.78969
16.1,16706634661.030405
16.15,16412035666.305618
16.2,16751674785.000532
16.25,17751071476.772835
16.3,18602089945.784126
16.35,18465721148.53907
16.4,17996082439.023712
16.45,18106582795.128292
16.5,18443423024.235645
16.55,18188739995.090115
16.6,17486376534.95225
16.65,16944111850.971388
16.7,16479031733.532833
16.75,16058074427.728405
16.8,15961770451.998291
16.85,16028865522.830307
16.9,16382675520.124212
16.95,16908291151.654448
17.0,17085603147.44976
17.05,16856225789.797886
17.1,16330836866.376333
17.15,15742432857.083807
17.2,15298696926.982756
17.25,15016744903.116478
17.3,14854977650.620594
17.35,14454326957.622482
17.4,13788118403.587105
17.45,13088052684.259626
17.5,12556393476.472086
17.55,12190597542.382088
17.6,12001714402.174482
17.65,11862424091.756668
17.7,11590812533.785088
17.75,11252707049.056221
17.8,10993070049.895035
17.85,10958466723.82347
17.9,11075953440.18575
17.95,11207794443.577868
18.0,11323517313.233519
18.05,11493351178.52904
18.1,11470505136.507639
18.15,11148577440.697792
18.2,10759859781.449522
18.25,10520931060.9856
18.3,10448662906.391344
18.35,10444917355.603569
18.4,10444395306.810364
18.45,10452568379.022081
18.5,10399425625.476017
18.55,10245180548.759413
18.6,10088904602.690844
18.65,10041472514.181025
18.7,9955581125.709358
18.75,9811411797.033371
18.8,9780145702.358786
18.85,9798839229.520855
18.9,9761786271.71201
18.95,9769639401.000196
19.0,9844284930.182344
19.05,9937439905.025637
19.1,9959078429.137579
19.15,9931935250.96966
19.2,10000782519.924839
19.25,10157018458.629333
19.3,10400040545.567413
19.35,10582613377.05597
19.4,10532618162.880266
19.45,10377586226.209589
19.5,10337147510.27494
19.55,10376895125.675259
19.6,10517053356.36133
19.65,10897751232.530638
19.7,11385183367.67141
19.75,11613174018.654633
19.8,11441197185.633644
19.85,11098979459.567837
19.9,10830135485.095194
19.95,10662202716.42855
20.0,10547051110.508753
20.05,10539366878.716906
20.1,10633442771.648573
20.15,10678912482.770498
20.2,10561479981.922548
20.25,10414157857.949627
20.3,10411530770.29342
20.35,10538846113.16838
20.4,10661394540.076235
20.45,10660624625.261904
20.5,10712212248.983978
20.55,10942669158.278444
20.6,11287079894.373222
20.65,12061938835.757301
20.7,13524730059.206705
20.75,15161704997.13909
20.8,15938942117.03997
20.85,15713375524.1373
20.9,15379084252.440676
20.95,15427976611.577284
21.0,15602126708.808498
21.05,15686830366.0585
21.1,15679641947.635054
21.15,15637190230.102198
21.2,15631326576.878931
21.25,15670249613.883564
21.3,15773503491.639084
21.35,15958439062.84411
21.4,16114894460.864275
21.45,16218451856.33249
21.5,16421561217.760277
21.55,16840866606.615347
21.6,17358125192.077187
21.65,17501860402.607548
21.7,17257799052.59563
21.75,17128964055.804216
21.8,17410722193.44053
21.85,17789974536.540752
21.9,17874708071.427185
21.95,17727528360.709957
22.0,17548749318.950676
22.05,17573463053.81317
22.1,17737384389.01243
22.15,17976360903.821625
22.2,18234839521.715755
22.25,18518267456.03532
22.3,18846178118.922752
22.35,19260199851.72003
22.4,19797730381.547153
22.45,20245202396.52249
22.5,20812479771.386284
22.55,21823370928.200626
22.6,23129458758.933807
22.65,24361706992.923683
22.7,25404402802.894936
22.75,26693070035.417545
22.8,28225970048.17039
22.85,29503627321.057743
22.9,30748300268.933968
22.95,32340896381.628906
23.0,33879025835.454533
23.05,35224651554.53079
23.1,36816039783.44707
23.15,38417680013.65746
23.2,39228381161.85853
23.25,39788501004.17948
23.3,40629363433.25723
23.35,41475306219.186295
23.4,42702404638.19155
23.45,44298436728.23252
23.5,45853247654.58369
23.55,47038297136.17594
23.6,47999182892.0619
23.65,48768027024.7325
23.7,49096607218.92492
23.75,49241696413.89954
23.8,49358512781.21215
23.85,49580420315.42463
23.9,49780845434.02421
23.95,49911941863.58516
24.0,49558272857.47302
24.05,48928259561.83859
24.1,48293163884.89299
24.15,46805345311.09649
24.2,45100156344.54309
24.25,44577628711.96863
24.3,44118122822.728
24.35,42646678528.26521
24.4,41342513934.41843
24.45,40340200365.380035
24.5,39912329268.27623
24.55,40506112687.08427
24.6,41540469632.29909
24.65,42350859600.27137
24.7,43412766316.42013
24.75,44975704439.58205
24.8,47304686114.49864
24.85,50513131082.55087
24.9,54601943210.598625
24.95,59548036000.48199
25.0,64409946380.761665
25.05,68354147316.34643
25.1,72214282518.8868
25.15,76382894847.67789
25.2,80558976150.36932
25.25,82941848421.96925
25.3,83730995526.03465
25.35,84918107084.46564
25.4,86277265533.31395
25.45,85951762539.76479
25.5,83961246626.34511
25.55,81102342764.9798
25.6,78388583954.16107
25.65,75624539476.5476
25.7,72757756177.13835
25.75,69988662843.54242
25.8,67764013164.759575
25.85,67011951828.18024
25.9,68218819563.01484
25.95,73398999371.55272
26.0,83300064413.75914
26.05,97162138775.20134
26.1,115018627210.39581
26.15,132584745532.54097
26.2,147151730993.22867
26.25,156440988065.33258
26.3,158567515871.1992
26.35,153242570052.33188
26.4,137519185763.18268
26.45,117176983512.13908
26.5,101139804273.90045
26.55,89086486746.84209
26.6,75423898273.68619
26.65,61463027816.09574
26.7,50229678518.24218
26.75,43426185724.28269
26.8,39853583019.23351
26.85,36385105323.31218
26.9,33099046689.459194
26.95,31119225610.66703
27.0,30085349504.587543
27.05,29361196993.074383
27.1,28952384174.376045
27.15,29042257489.93341
27.2,29305694745.637657
27.25,29568714613.264626
27.3,29625818592.193073
27.35,29451358601.580036
27.4,29204776968.448704
27.45,28582567932.56925
27.5,27829795253.883087
27.55,27267163613.51082
27.6,26899546023.728935
27.65,26625317849.39739
27.7,26353968211.100895
27.75,25978359229.044434
27.8,25574771608.316868
27.85,25399098861.759068
27.9,25236210375.77071
27.95,24795184388.153275
28.0,23999819497.883656
28.05,23236898409.955906
28.1,22513690638.822773
28.15,21912017994.97118
28.2,21655392813.155636
28.25,21358250963.138313
28.3,20846876939.029526
28.35,20244557027.56334
28.4,19818634528.618618
28.45,19493265370.388683
28.5,19067691879.552864
28.55,18305507031.38393
28.6,17264607148.26906
28.65,16290276765.445162
28.7,15611955058.932703
28.75,15122120247.50969
28.8,14647443770.135744
28.85,14100975032.191917
28.9,13622727623.545513
28.95,13438871746.257256
29.0,13397067852.094997
29.05,13303674426.51912
29.1,13067748789.326471
29.15,12813267857.463348
29.2,12756809169.314981
29.25,12842613275.04616
29.3,12935513928.038122
29.35,12929239807.376637
29.4,12811043602.618752
29.45,12702049501.878967
29.5,12765242489.881311
29.55,12940679497.903824
29.6,13084240139.77778
29.65,13104320416.346272
29.7,13095046243.0054
29.75,13156227917.452217
29.8,13187415904.000118
29.85,13152113930.074831
29.9,13035162859.50255
29.95,12771392178.15491
30.0,12472793806.438599
30.05,12236556884.210274
30.1,12043609710.184626
30.15,11880304737.65644
30.2,11648922091.529455
30.25,11370107368.210274
30.3,11129842617.782825
30.35,10814745356.354843
30.4,10411304750.86449
30.45,10038473675.815504
30.5,9771032599.930864
30.55,9636649739.659012
30.6,9521692919.213552
30.65,9396300640.290592
30.7,9334940716.62689
30.75,9335253999.187416
30.8,9339257750.766233
30.85,9246933016.679111
30.9,9082255150.125881
30.95,8891497038.732132
31.0,8665015500.19177
31.05,8459641106.683561
31.1,8375723083.8935375
31.15,8392418632.652117
31.2,8359622058.772381
31.25,8221059678.854875
31.3,8043704922.064042
31.35,7960213565.697507
31.4,7948506758.382033
31.45,7938916040.890208
31.5,7924487794.524816
31.55,7884740960.740004
31.6,7858181217.119196
31.65,7865314970.643081
31.7,7933496434.690184
31.75,8192053749.804076
31.8,8763482867.673286
31.85,9562598945.889647
31.9,10395238774.260483
31.95,10986391499.460869
32.0,11125491670.453978
32.05,10902551963.379086
32.1,10579702559.645544
32.15,10238458207.69313
32.2,9887827872.935907
32.25,9592248523.266699
32.3,9395634975.603592
32.35,9239787842.693153
32.4,9047731232.293646
32.45,8797392926.616234
32.5,8581708759.832181
32.55,8433052001.616996
32.6,8235858349.587273
32.65,8063790768.917603
32.7,8006375092.789029
32.75,8019223442.182324
32.8,8053401442.901729
32.85,8055766586.161469
32.9,8020692770.731591
32.95,7936652312.140664
33.0,7863246918.565404
33.05,7871973745.334693
33.1,7944429967.572406
33.15,8007441220.334647
33.2,7992812066.517646
33.25,7889373117.651766
33.3,7728297098.123437
33.35,7541079726.070799
33.4,7324460187.499105
33.45,7125468766.119231
33.5,6966585720.240804
33.55,6871970166.1312895
33.6,6843109276.279282
33.65,6818723075.081057
33.7,6761931666.20267
33.75,6648102239.710347
33.8,6519232590.689481
33.85,6420865353.159304
33.9,6336627912.365768
33.95,6276913976.969405
34.0,6262045847.605277
34.05,6230898721.042245
34.1,6151114060.54323
34.15,6082753303.857616
34.2,6019185162.453165
34.25,5954114825.288492
34.3,5926011592.733272
34.35,6020232267.961631
34.4,6281754689.278881
34.45,6655829699.536632
34.5,6995395849.089475
34.55,7180716010.326158
34.6,7148401115.660822
34.65,6968648438.087384
34.7,6756489731.67729
34.75,6552898726.855024
34.8,6386292843.926493
34.85,6257145937.754529
34.9,6127039393.667756
34.95,6015076235.146217
35.0,5919668330.375763
35.05,5815996008.956385
35.1,5734746686.296417
35.15,5707623099.889441
35.2,5709741121.991961
35.25,5704043452.563097
35.3,5658693033.65697
35.35,5595610874.150691
35.4,5544908287.9698715
35.45,5520210584.351365
35.5,5519487374.657543
35.55,5565497199.4493885
35.6,5730172058.975628
35.65,6011105061.512735
35.7,6292202883.305582
35.75,6482397051.191116
35.8,6593991778.77314
35.85,6660242671.440539
35.9,6714035196.579202
35.95,6756849537.78091
36.0,6732434450.146974
36.05,6629488804.93319
36.1,6502339840.620921
36.15,6417668314.88545
36.2,6453078049.2199745
36.25,6655531935.315531
36.3,6953049773.7649975
36.35,7157024962.48523
36.4,7177134916.007993
36.45,7074188236.586013
36.5,6958660901.868399
36.55,6926606055.164719
36.6,6959895206.267232
36.65,6986005863.462578
36.7,6986985091.784724
36.75,6968527922.882868
36.8,6950442765.009758
36.85,6925682029.740933
36.9,6851856220.697997
36.95,6713351858.458764
37.0,6508912327.784154
37.05,6297449997.156708
37.1,6124320344.951165
37.15,5974394008.339166
37.2,5827283210.497748
37.25,5724440332.512364
37.3,5707799457.684305
37.35,5811031003.18275
37.4,6084321975.446784
37.45,6496456630.113581
37.5,6911456316.627434
37.55,7199879323.029296
37.6,7288280667.311846
37.65,7175372104.364486
37.7,6960423262.654572
37.75,6820557041.768593
37.8,6819559750.822439
37.85,6873783877.463479
37.9,6886854819.427817
37.95,6824695727.897625
38.0,6704353820.860496
38.05,6547275978.909466
38.1,6411033696.389515
38.15,6327714652.673634
38.2,6259281523.223075
38.25,6207632848.301018
38.3,6145824401.639776
38.35,6042324592.1602745
38.4,5916856638.74689
38.45,5813269562.064439
38.5,5755420969.35715
38.55,5712395104.440543
38.6,5619392145.180111
38.65,5509543067.057887
38.7,5408411984.056718
38.75,5338611861.848095
38.8,5299271680.334761
38.85,5245563931.31509
38.9,5194662737.188917
38.95,5206791985.330894
39.0,5310087859.8766775
39.05,5504426155.326048
39.1,5836390101.058769
39.15,6311579935.573102
39.2,6789711575.672182
39.25,7109661840.43802
39.3,7189256279.084083
39.35,7076459164.230608
39.4,6862341598.6774845
39.45,6599893206.469885
39.5,6334512888.537712
39.55,6127947236.681509
39.6,5991952107.237619
39.65,5899052588.931831
39.7,5838671640.653302
39.75,5814953289.497144
39.8,5854283331.965491
39.85,5924392231.440595
39.9,5953491301.854678
39.95,5959066223.989314
40.0,5993256736.59
40.05,6037945722.0318365
40.1,6062565602.096188
40.15,6070782201.051829
40.2,6058619381.967804
40.25,6026375608.375565
40.3,5993812509.312005
40.35,5988885660.969177
40.4,5991098065.60255
40.45,5969943123.593945
40.5,5965023395.676482
40.55,6045696445.487143
40.6,6227349769.372447
40.65,6455378315.570801
40.7,6666916961.425673
40.75,6809638053.629294
40.8,6902500283.363729
40.85,6957552277.300532
40.9,6921992335.928079
40.95,6791791749.699714
41.0,6607088373.376843
41.05,6389614523.867472
41.1,6171108563.172322
41.15,6000357912.890625
41.2,5911613311.951585
41.25,5930839904.882474
41.3,6063680592.227515
41.35,6281098749.464275
41.4,6543953541.113216
41.45,6813715947.861376
41.5,7028066733.946511
41.55,7154491474.329502
41.6,7183947300.210394
41.65,7092741469.976226
41.7,6931757084.590168
41.75,6768167254.374451
41.8,6657328280.700498
41.85,6609917947.367665
41.9,6637633481.915717
41.95,6816721020.560738
42.0,7289900734.294411
42.05,8217654582.5594015
42.1,9645859529.085577
42.15,11420214744.634653
42.2,13052438140.823496
42.25,13969529123.61959
