2theta,Intensity
0.0,16532.221842051906
0.05,108778.8681136677
0.1,113833.09215414023
0.15,119247.79961958299
0.2,191644.9155594315
0.25,4458379.095472958
0.3,6645543.409159771
0.35,6956917.340453007
0.4,7290699.438073077
0.45,7649092.714918561
0.5,8034577.7521254225
0.55,8449955.755613886
0.6,8898399.613119524
0.65,9383514.697517263
0.7,9909411.603024002
0.75,10480793.568937182
0.8,11103062.08259883
0.85,11782445.116297342
0.9,12526153.720533576
0.95,13397189.720865192
1.0,14462216.542039169
1.05,15739400.925428579
1.1,17041193.11220469
1.15,18330497.296135966
1.2,19961375.479381334
1.25,21745815.042058785
1.3,23639150.365554467
1.35,25695489.26642084
1.4,28002888.90003434
1.45,30639850.48042553
1.5,33673006.074307986
1.55,37186679.39683896
1.6,41289060.568260014
1.65,46120860.9896631
1.7,51907197.55782975
1.75,58820950.86500533
1.8,67241863.17294405
1.85,77649658.07503575
1.9,90735423.29668278
1.95,107527900.57147296
2.0,129625791.0901013
2.05,159757493.99608895
2.1,204320529.0040958
2.15,284040844.95039433
2.2,443121592.73592883
2.25,688576432.7518299
2.3,3796981927.553323
2.35,4630987422.450127
2.4,6985179019.114717
2.45,12691507905.33317
2.5,18759864722.879776
2.55,16604308707.381277
2.6,10068489583.117577
2.65,6411119456.118137
2.7,5406271230.601356
2.75,5334964092.645077
2.8,5476071088.069221
2.85,5706309680.154621
2.9,5990192703.117555
2.95,6321546380.776229
3.0,6727633732.079566
3.05,7219070276.420557
3.1,7784149693.3459425
3.15,8537291280.263292
3.2,9548293130.132637
3.25,10701399075.883158
3.3,11697910496.826336
3.35,12376552825.185112
3.4,13192338702.068007
3.45,14400108435.152111
3.5,15564063408.300747
3.55,16628106977.83049
3.6,17906683504.91692
3.65,19620517120.876392
3.7,21823365816.028988
3.75,24529267580.08238
3.8,27816559545.288876
3.85,31843461917.12785
3.9,36836738009.67709
3.95,43072090387.50958
4.0,50977167209.80097
4.05,61311016134.43264
4.1,75192607551.72026
4.15,94402089280.04355
4.2,121994544318.87311
4.25,163539131144.6651
4.3,230717891641.6628
4.35,362765660261.95593
4.4,767027563945.772
4.45,2177455114159.4998
4.5,5291763913331.941
4.55,7635804418601.538
4.6,5354231820830.773
4.65,2226245529020.4233
4.7,788852555208.5078
4.75,375305080850.79987
4.8,245062556572.16232
4.85,188907138224.73233
4.9,181365259316.90244
4.95,224444554492.6678
5.0,275269869278.8583
5.05,266616632038.68158
5.1,219481026778.80182
5.15,178843812259.8375
5.2,185439149399.8417
5.25,243070668819.04034
5.3,281740089491.19916
5.35,262459133730.1644
5.4,215011794284.92682
5.45,148965262171.5272
5.5,85301349094.58623
5.55,47781806501.68238
5.6,32273688395.96865
5.65,25931580309.002754
5.7,22325738242.255596
5.75,19853695955.06438
5.8,18138486229.80177
5.85,17007250043.85853
5.9,16403466282.504879
5.95,16404032863.662975
6.0,16911657301.75459
6.05,17349158703.68726
6.1,17885073434.101276
6.15,19262958077.415237
6.2,22096712880.277916
6.25,28530558985.896893
6.3,45547391088.8184
6.35,86248816367.74841
6.4,157396527082.04907
6.45,240142666962.52945
6.5,305002013759.90515
6.55,353445451719.71045
6.6,388607479783.342
6.65,367775914436.4387
6.7,275805459795.9852
6.75,189221819710.2197
6.8,180950695289.86844
6.85,259467576645.57098
6.9,357110527309.7934
6.95,394415775589.0683
7.0,362552592871.4949
7.05,306535294124.687
7.1,243394070948.27252
7.15,168383075342.0147
7.2,98020386034.28818
7.25,50376785363.3858
7.3,27130235237.933342
7.35,17899667906.297447
7.4,14156316388.994402
7.45,12547611523.011438
7.5,11963542647.359213
7.55,11623869679.305538
7.6,11136363575.781729
7.65,11088728135.06691
7.7,13213467533.847866
7.75,23177796731.825775
7.8,53967673474.61577
7.85,103766745344.76654
7.9,116030721588.22278
7.95,71984226761.7069
8.0,35779141807.15788
8.05,26647073484.467472
8.1,27103097333.364124
8.15,24329943135.529896
8.2,21809925316.76815
8.25,22590166177.276096
8.3,26149602792.165203
8.35,35871510378.18823
8.4,52471366981.9784
8.45,67462107580.21606
8.5,71596155200.3743
8.55,66706751488.693794
8.6,61190864417.98971
8.65,54923485700.44928
8.7,44418075274.93135
8.75,32160468270.55423
8.8,25004835343.75723
8.85,27038020130.368626
8.9,38168110037.5095
8.95,55071937693.91386
9.0,73667468595.16125
9.05,90822133749.58601
9.1,95940514856.75679
9.15,78360459248.78593
9.2,60792989466.18853
9.25,57530595329.86707
9.3,59125407370.721985
9.35,54959214933.919556
9.4,44362397752.023415
9.45,36088024683.91789
9.5,37153275268.71838
9.55,44561372679.28574
9.6,51939421522.79359
9.65,56610523495.87619
9.7,54813687545.180214
9.75,44305430030.948814
9.8,29989099215.250988
9.85,20373820972.83944
9.9,19112705767.797367
9.95,24256330116.849266
10.0,30819565527.85512
10.05,34764154825.970314
10.1,37648326572.50761
10.15,41800886368.84769
10.2,44210572860.78678
10.25,40167457551.75616
10.3,32507880571.824074
10.35,29534852581.254356
10.4,36930044018.549446
10.45,54755350979.701096
10.5,79171136581.70712
10.55,100920350625.882
10.6,108403035473.49687
10.65,99126835789.41151
10.7,85261976702.16089
10.75,79543911848.66046
10.8,80576022819.02332
10.85,79358619602.97044
10.9,71045113095.90413
10.95,55280790858.317314
11.0,38205178382.581436
11.05,27620271370.91606
11.1,26781419212.7343
11.15,34806240027.84654
11.2,48304968263.51655
11.25,62889973735.870705
11.3,72343398329.22743
11.35,72836916822.03534
11.4,66703954269.949745
11.45,59417455062.50859
11.5,54823978020.034294
11.55,52899853747.74959
11.6,48607398032.145515
11.65,39021926793.48047
11.7,27281887090.728043
11.75,17837159844.450764
11.8,12827918604.883196
11.85,12346298304.315216
11.9,15424372753.441214
11.95,22013455830.357967
12.0,31870027310.821777
12.05,42135479886.46303
12.1,47438499429.722855
12.15,46890270036.81244
12.2,45243250970.63929
12.25,45974564029.75311
12.3,47446409038.74281
12.35,46970868307.98785
12.4,43494686150.83293
12.45,38509520339.27604
12.5,33459436354.23669
12.55,28319501491.04353
12.6,23547660816.179794
12.65,21153828049.055096
12.7,21348002183.205025
12.75,22165409876.136833
12.8,22206377220.824093
12.85,21294392867.781384
12.9,20208956092.894188
12.95,20231815802.34271
13.0,21862244791.53119
13.05,25243096777.896038
13.1,30261762313.15681
13.15,35630387333.27467
13.2,39977645076.8666
13.25,43112756850.09416
13.3,44408395826.99875
13.35,43487507200.45326
13.4,40949676549.2242
13.45,38362557001.63936
13.5,37156929730.92788
13.55,38006328688.532
13.6,40632434067.24813
13.65,43051992010.69537
13.7,43786898720.78936
13.75,42046093811.66984
13.8,37715918560.92179
13.85,31626615367.04212
13.9,25380150543.875732
13.95,21087303806.778473
14.0,19796393366.213
14.05,21232623276.70065
14.1,23933967742.6373
14.15,26578455324.6134
14.2,28539116766.445282
14.25,29462478512.950256
14.3,29142435597.81912
14.35,27568524560.949207
14.4,25126777646.90022
14.45,22689058401.83987
14.5,21790065941.556126
14.55,23479343348.805492
14.6,27594321139.165016
14.65,33107103548.53786
14.7,38037613720.33672
14.75,40338058382.10305
14.8,39694947860.18338
14.85,37477227550.66952
14.9,34156676687.65663
14.95,30942747110.15074
15.0,28919219446.7243
15.05,28290581527.80801
15.1,29319820528.15396
15.15,31197470079.422234
15.2,33305131008.84101
15.25,35030121308.911285
15.3,35882177225.5323
15.35,35933524260.75999
15.4,35450672410.622505
15.45,34555751163.31162
15.5,33192198034.396675
15.55,31369187898.226997
15.6,29232651969.120045
15.65,27391796611.29709
15.7,27375389075.23522
15.75,31791490593.545235
15.8,39202794949.41869
15.85,41432216496.435486
15.9,37854151682.93921
15.95,35597547105.82964
16.0,34837089554.88916
16.05,34430693097.66391
16.1,36337905064.266815
16.15,40827734408.14701
16.2,44128824805.91505
16.25,42141902538.25784
16.3,35672707489.977066
16.35,29690540338.213047
16.4,27833148736.08621
16.45,29131483259.19036
16.5,29995269586.372955
16.55,28938352780.454292
16.6,26602315108.8228
16.65,23941241223.60654
16.7,22276792664.450993
16.75,22588692520.346565
16.8,24071531413.44307
16.85,25930547301.226337
16.9,27719090986.960823
16.95,28360524767.960926
17.0,27535112260.223488
17.05,25869082189.5131
17.1,23921180178.225655
17.15,21983065780.764267
17.2,20320408063.33003
17.25,19120950577.6781
17.3,18839190562.81754
17.35,19695958670.58272
17.4,21314768403.029434
17.45,23113703637.5948
17.5,25029842946.629425
17.55,26652269028.239426
17.6,27262127729.95813
17.65,26687463003.73362
17.7,25316916608.07143
17.75,24359823791.060165
17.8,25040416557.884632
17.85,27826891390.180763
17.9,32484117669.20252
17.95,38248509130.451546
18.0,43576315987.205376
18.05,47147348761.226234
18.1,48680476341.552765
18.15,47839653118.87965
18.2,44633117493.781944
18.25,41039789000.07706
18.3,38323019728.164314
18.35,36450836024.5298
18.4,35897881816.03266
18.45,35767772475.88577
18.5,34754351506.15484
18.55,33112406811.173744
18.6,31527480549.380978
18.65,29510616122.975555
18.7,27356675594.79697
18.75,25860575961.366817
18.8,24436449092.333714
18.85,22396571867.86969
18.9,20328883338.235863
18.95,18854336600.816284
19.0,18420839499.54006
19.05,19107875880.47645
19.1,20552080894.689507
19.15,22516849040.00631
19.2,24547026717.74509
19.25,26647354692.374573
19.3,28675541005.79235
19.35,29782724461.02289
19.4,30302719318.96442
19.45,30311323341.86017
19.5,29465423720.428482
19.55,27597993362.577072
19.6,25008720750.5211
19.65,21953104266.355515
19.7,19131227553.80274
19.75,17625741891.001717
19.8,18832566246.861015
19.85,23924680956.24146
19.9,30016781573.82739
19.95,31389573976.822235
20.0,28100566253.127663
20.05,25486541690.28809
20.1,25811258390.90855
20.15,27427815382.313408
20.2,28543944217.87404
20.25,28888169986.050148
20.3,29166162726.720924
20.35,29408847169.94399
20.4,29692654827.996872
20.45,30005316833.393253
20.5,29783843254.330624
20.55,29226692548.422707
20.6,28971878724.17845
20.65,28777108407.31299
20.7,28515871930.278866
20.75,28769397796.23221
20.8,29707190137.700466
20.85,31156346822.47977
20.9,32949962670.285355
20.95,33900574005.831673
21.0,33335630188.67583
21.05,32222516588.053337
21.1,30914647617.085793
21.15,29254219585.025547
21.2,27041046109.514465
21.25,24796889376.57475
21.3,23176245040.108547
21.35,22287241879.02694
21.4,21869067334.9047
21.45,21889218330.500298
21.5,22476458118.544674
21.55,23605270336.884087
21.6,25369095196.205845
21.65,27597085306.66643
21.7,29787010539.1361
21.75,31527119747.514175
21.8,32326203291.18332
21.85,32201281009.700554
21.9,31592682845.21826
21.95,30636585494.521034
22.0,29546135664.890842
22.05,28393458475.83459
22.1,27202233400.43758
22.15,26411291547.546337
22.2,26236919349.9196
22.25,26043888862.034485
22.3,25462953919.920288
22.35,24756442115.043224
22.4,24178209430.927254
22.45,24037335521.33959
22.5,24575201384.61559
22.55,25679051363.0433
22.6,27206675059.35797
22.65,29289158654.334805
22.7,31965032618.623863
22.75,34293984789.120365
22.8,36174587607.002785
22.85,37969342795.34801
22.9,37992443005.464035
22.95,35486326193.61808
23.0,32562911616.769966
23.05,30279112702.76238
23.1,28363712383.85388
23.15,27164033933.296288
23.2,27152248333.549004
23.25,28122209697.63028
23.3,29713870310.57614
23.35,31733710206.251476
23.4,33761048118.557415
23.45,35488856223.71777
23.5,36785808487.4554
23.55,37376423849.8007
23.6,36820650344.01788
23.65,35315036040.00833
23.7,33141538700.61635
23.75,30897627103.216743
23.8,28813267628.081856
23.85,26551583837.993702
23.9,24156717339.293552
23.95,22126666193.51578
24.0,20999380558.873245
24.05,20835042191.883846
24.1,21372213146.712475
24.15,22688225572.466465
24.2,24158546681.238102
24.25,24895888348.896202
24.3,24864621084.879852
24.35,24505145280.088203
24.4,24353341331.31394
24.45,24587891218.758636
24.5,25367101368.75992
24.55,26880891675.63682
24.6,28872000847.801037
24.65,30805904081.265553
24.7,32393192987.079628
24.75,33278527729.37608
24.8,33301206487.512783
24.85,33059079594.465103
24.9,32821894833.03593
24.95,32389706160.74593
25.0,31689360277.9012
25.05,30703233517.94981
25.1,29780087733.221813
25.15,29513575431.284126
25.2,30064661012.40286
25.25,31147153157.834938
25.3,32790844374.551357
25.35,34620325320.30671
25.4,36314351928.4124
25.45,38251580539.45629
25.5,40377508241.604904
25.55,41339638769.83866
25.6,41301910334.56404
25.65,41136312411.704124
25.7,40694209574.39898
25.75,39861600264.055336
25.8,38802298573.45367
25.85,38226928783.20733
25.9,38284139220.09631
25.95,38089372728.553825
26.0,37299773729.70253
26.05,35947772763.22758
26.1,34229398464.346954
26.15,32179405671.14067
26.2,29511109358.622116
26.25,26960931888.483795
26.3,25157618777.677917
26.35,24429944399.39838
26.4,24440963804.633957
26.45,24569695873.088448
26.5,24877557480.002316
26.55,25300770758.847965
26.6,25462850704.62735
26.65,25069495656.67764
26.7,24126131483.37857
26.75,22803370976.69171
26.8,21260625188.582005
26.85,19570288690.161285
26.9,17959191483.42347
26.95,16765761941.991549
27.0,16143867192.751318
27.05,16032472542.42654
27.1,16199672290.031307
27.15,16109681702.165564
27.2,15522672985.022943
27.25,14621882314.372047
27.3,13760029849.973024
27.35,13063348422.015373
27.4,12755363907.828888
27.45,13159241382.800003
27.5,14072694796.435862
27.55,14384296248.893625
27.6,13894391017.872986
27.65,13643517547.216118
27.7,14101514244.60927
27.75,14847604984.083485
27.8,15257834491.0196
27.85,15267869425.999266
27.9,15180239359.069418
27.95,15013774969.045212
28.0,14546213933.633352
28.05,13820711350.739857
28.1,13066847209.902096
28.15,12399210620.023275
28.2,11797816681.73433
28.25,11164182853.26434
28.3,10477067726.858128
28.35,9887734855.565292
28.4,9507503963.271336
28.45,9454069505.764875
28.5,9597265340.233538
28.55,9729930231.068056
28.6,9699634406.678879
28.65,9488850266.05271
28.7,9215165062.67987
28.75,8946174677.583347
28.8,8666824236.059412
28.85,8391450574.304372
28.9,8222636643.270843
28.95,8101279969.3196535
29.0,7837113932.749702
29.05,7440111910.153488
29.1,7039787095.55735
29.15,6673675708.952944
29.2,6319173290.0829525
29.25,5958392775.686211
29.3,5655314425.575559
29.35,5417996196.827034
29.4,5246173066.150414
29.45,5150950777.775621
29.5,5122400299.2866125
29.55,5216422002.385116
29.6,5513978759.718704
29.65,5917057105.471206
29.7,6191176165.596883
29.75,6363201215.479668
29.8,6696705376.612939
29.85,7322304294.378555
29.9,8158216590.399944
29.95,9324995628.963762
30.0,11516496445.792368
30.05,14762823269.598776
30.1,18501852956.03248
30.15,22465060014.59631
30.2,26578286554.66855
30.25,30355396179.553585
30.3,34378696934.49329
30.35,39024223264.97894
30.4,43384084145.76702
30.45,47356063925.96211
30.5,50023984834.91746
30.55,50833289845.41682
30.6,48936547867.376175
30.65,44578224659.80338
30.7,39471416667.80203
30.75,35057242889.80124
30.8,31101373804.947052
30.85,26638175423.415474
30.9,22274093895.40143
30.95,19191336651.26587
31.0,17475569585.458076
31.05,16390714794.497232
31.1,15153262944.191536
31.15,13852703945.362333
31.2,12673236687.916603
31.25,11613209994.174707
31.3,10719798319.694105
31.35,9826471429.437595
31.4,8825722175.955982
31.45,7829417946.526503
31.5,6982880658.907427
31.55,6431296635.690594
31.6,6074694517.977351
31.65,5639075745.298993
31.7,5199922396.626837
31.75,4878758333.692056
31.8,4641425927.540966
31.85,4461154862.253702
31.9,4302638825.19518
31.95,4188840246.2453513
32.0,4163115561.2259946
32.05,4215815590.6009192
32.1,4374695835.282371
32.15,4718786368.126142
32.2,5158420438.204021
32.25,5444378940.928732
32.3,5580008363.622064
32.35,5738306624.227271
32.4,5874351477.404833
32.45,5775308661.0514765
32.5,5301230530.164934
32.55,4740241682.310949
32.6,4503068009.709512
32.65,4664051719.001243
32.7,5124294303.716595
32.75,5767606217.906966
32.8,6361083641.689891
32.85,6742128648.452748
32.9,6803239298.090772
32.95,6583093632.083631
33.0,6303656464.568696
33.05,6099752712.696704
33.1,6015909202.692866
33.15,6026522854.789743
33.2,6066115157.078871
33.25,6123827276.968553
33.3,6243954223.39694
33.35,6419125976.926096
33.4,6604117886.491667
33.45,6738601678.173019
33.5,6715554120.321838
33.55,6563638247.109684
33.6,6377901530.882744
33.65,6202424310.235488
33.7,6017724368.797081
33.75,5825004081.741553
33.8,5611214272.107668
33.85,5379478728.551744
33.9,5159195559.604271
33.95,4930214508.493111
34.0,4662506631.676194
34.05,4405393012.641028
34.1,4194921922.2948236
34.15,4015347094.654048
34.2,3883461043.1459646
34.25,3768759907.7566705
34.3,3632689343.030856
34.35,3502561688.2774906
34.4,3405133071.634819
34.45,3311712044.3000817
34.5,3219538575.5034385
34.55,3167999676.543785
34.6,3160943829.1317897
34.65,3181309020.301157
34.7,3259152901.9360466
34.75,3416267299.794849
34.8,3582894636.4601364
34.85,3647056191.748876
34.9,3625330561.7024603
34.95,3606391150.3133574
35.0,3604844778.2868495
35.05,3572546065.0153193
35.1,3522390028.162557
35.15,3518400698.6971726
35.2,3590593334.7239923
35.25,3751462042.5430007
35.3,3972344004.5749598
35.35,4170025852.211908
35.4,4275804077.3050113
35.45,4265090392.216223
35.5,4158590745.1926684
35.55,4010010320.5925746
35.6,3919619111.474716
35.65,3912159767.6771417
35.7,3980966122.812613
35.75,4128735123.8842783
35.8,4300057662.361205
35.85,4427092646.530659
35.9,4465799192.302908
35.95,4432069768.824696
36.0,4393624747.067539
36.05,4402495445.666159
36.1,4428754781.309825
36.15,4390070017.544862
36.2,4276096510.147519
36.25,4187095026.3942657
36.3,4193426969.28862
36.35,4265180738.2740655
36.4,4322846539.500073
36.45,4308540537.385642
36.5,4275057451.872119
36.55,4307739231.169574
36.6,4468468075.827019
36.65,4752682670.529012
36.7,4989348362.925743
36.75,5052519081.73972
36.8,5040896618.20431
36.85,5087278307.107165
36.9,5262871217.105166
36.95,5491137057.046174
37.0,5551469278.866205
37.05,5344900711.006784
37.1,5077429831.998289
37.15,4901583588.627065
37.2,4754528687.435405
37.25,4574670896.137386
37.3,4444335082.854311
37.35,4452141436.540502
37.4,4604925802.781417
37.45,4810744428.290344
37.5,4962372799.144884
37.55,4996138595.634401
37.6,4866562907.433278
37.65,4650324211.707293
37.7,4465464534.196826
37.75,4406349616.420071
37.8,4543439388.655135
37.85,4761835473.947606
37.9,4853789861.153952
37.95,4791715087.9106
38.0,4694186432.010332
38.05,4633683212.782601
38.1,4590588389.157333
38.15,4517953108.6867485
38.2,4417288456.776936
38.25,4329052745.855956
38.3,4235875862.1022096
38.35,4126778041.639339
38.4,4027605642.277999
38.45,3958344909.7639933
38.5,3921863328.6978555
38.55,3922217386.236947
38.6,3973570915.314215
38.65,4050576446.9256244
38.7,4119836341.869825
38.75,4175107521.996807
38.8,4198708224.687362
38.85,4168750698.148768
38.9,4107859929.884982
38.95,4039861270.002045
39.0,3976647259.8873997
39.05,3912780467.573805
39.1,3877236264.8339047
39.15,3878081481.082373
39.2,3876188815.5310965
39.25,3887734302.5008426
39.3,3935785190.945618
39.35,4027741890.7174783
39.4,4220133611.4613514
39.45,4627515638.670083
39.5,5377901870.909499
39.55,6376972835.470564
39.6,7112645420.365919
39.65,7214010123.875074
39.7,6975635572.400015
39.75,6714741941.441199
39.8,6396299342.1590805
39.85,6015842254.146424
39.9,5683754479.122861
39.95,5499925854.960749
40.0,5471935384.752448
40.05,5511093485.799203
40.1,5530340602.378383
40.15,5491362918.730656
40.2,5369601934.072367
40.25,5199050299.544248
40.3,5090868667.493943
40.35,5123391926.235585
40.4,5264675807.816243
40.45,5398832153.845735
40.5,5430331124.945559
40.55,5341611536.993778
40.6,5187219753.026535
40.65,5024738640.616844
40.7,4876197445.653684
40.75,4756103645.487616
40.8,4643041591.726142
40.85,4527738694.326434
40.9,4453087830.695449
40.95,4465187319.980292
41.0,4570863553.797968
41.05,4753337671.556297
41.1,5062062210.103876
41.15,5603783640.190397
41.2,6341459872.784002
41.25,6931197178.07773
41.3,7030203472.417377
41.35,6735381166.093061
41.4,6358770411.995049
41.45,5993353055.950199
41.5,5641642013.80334
41.55,5319468942.718283
41.6,5057281017.442498
41.65,4855226575.611636
41.7,4728924781.483727
41.75,4719842947.9877405
41.8,4771636995.731967
41.85,4816718792.597517
41.9,4846731542.926288
41.95,4837438595.52831
42.0,4773064181.632223
42.05,4700827691.180131
42.1,4669839264.721782
42.15,4658462002.799577
42.2,4644711247.350407
42.25,4643667205.625576
42.3,4629091820.411102
