2theta,Intensity
0.0,3494835.705143348
0.05,7084464.875580211
0.1,7415910.380012492
0.15,7771169.385644571
0.2,8152578.7460724935
0.25,8562769.12277156
0.3,9004710.448092038
0.35,9481765.811162867
0.4,9997755.598241968
0.45,10557034.179512748
0.5,11164582.0270741
0.55,11826116.916941246
0.6,12548228.87002565
0.65,13338544.804214349
0.7,14205930.614228979
0.75,15160740.725536695
0.8,16215128.306413885
0.85,17383433.58773677
0.9,19115975.375084095
0.95,25293510.222322293
1.0,27987760.394214302
1.05,30116594.369822033
1.1,32503559.30683348
1.15,35199313.75442968
1.2,38261143.736385755
1.25,41760508.23783988
1.3,45787508.52148936
1.35,50457101.1648011
1.4,55917879.73940155
1.45,62364716.71556723
1.5,70057336.48783058
1.55,79348228.84003183
1.6,91235441.31595206
1.65,105416323.81071629
1.7,123385131.40415491
1.75,146658387.71250334
1.8,177597698.04425138
1.85,220046672.6256819
1.9,280598219.9016914
1.95,371398774.6404996
2.0,519551779.87255716
2.05,829361038.8704402
2.1,1803520768.158193
2.15,4799844495.936522
2.2,16581925441.333414
2.25,20810387188.773243
2.3,19562817204.122093
2.35,14210180743.483255
2.4,10231598167.716639
2.45,8902564256.504091
2.5,8799407355.069624
2.55,9042907752.170067
2.6,9411367565.326948
2.65,9862104044.682323
2.7,10384556509.73363
2.75,10980935446.507168
2.8,11651014632.78426
2.85,12405247151.888529
2.9,13261252310.52916
2.95,14252892736.22018
3.0,15486988975.86665
3.05,17450260539.121243
3.1,21584696515.325275
3.15,28813590028.288754
3.2,34133712516.396854
3.25,31632104759.982746
3.3,27694553573.750225
3.35,27010709755.89509
3.4,28599900042.872383
3.45,31146575905.116627
3.5,34287584575.733704
3.55,38035741697.64163
3.6,42499572465.137184
3.65,47847282375.993576
3.7,54326931480.049385
3.75,62358312904.801605
3.8,72527532429.56528
3.85,85164134356.8157
3.9,100366602071.99931
3.95,119998850348.0056
4.0,146724366187.76154
4.05,183887875958.97116
4.1,237286962169.5229
4.15,317440150168.9772
4.2,445139374835.6062
4.25,684981677099.4318
4.3,1377333200077.143
4.35,3876281567999.7007
4.4,9929511179410.322
4.45,15602093549727.256
4.5,11645197355074.48
4.55,4945871860765.943
4.6,1716340605408.773
4.65,780139318677.0906
4.7,487363800568.0606
4.75,343291992903.62604
4.8,255550919399.4598
4.85,198542041287.7537
4.9,161615808011.76584
4.95,139866126961.0154
5.0,126086865580.29678
5.05,110292391249.39134
5.1,92673228946.47777
5.15,76556300655.70847
5.2,63679831804.8528
5.25,54795167028.52116
5.3,48676235853.755394
5.35,44079207002.39605
5.4,40430406485.92943
5.45,37629695335.897385
5.5,35510460100.57395
5.55,33741353512.047016
5.6,32469214300.479042
5.65,31686572226.956383
5.7,31429994096.933556
5.75,31871135907.82288
5.8,33538595030.10542
5.85,37028395978.292206
5.9,41364527194.38272
5.95,45131346219.66537
6.0,50279361488.37259
6.05,58078038307.532974
6.1,71276728314.09415
6.15,97651517599.1558
6.2,166247221081.91135
6.25,375343887062.92224
6.3,896819928037.4131
6.35,1691343500633.3486
6.4,2142810314130.7751
6.45,1721629734318.4272
6.5,920961657651.1492
6.55,387156921947.65247
6.6,169457716246.15738
6.65,96108559364.35489
6.7,60701407201.34077
6.75,45181114931.89236
6.8,35504324832.01033
6.85,29175871473.65777
6.9,24728321413.30989
6.95,21349454966.71526
7.0,19054849202.16594
7.05,17738134569.963146
7.1,17059547450.156757
7.15,17325844310.698246
7.2,18801810504.769447
7.25,20044178730.94403
7.3,20225852790.758842
7.35,21575697103.97953
7.4,25977053259.40151
7.45,33083762806.367474
7.5,42702324182.78217
7.55,64977524048.724846
7.6,151358459317.1849
7.65,405066596173.4566
7.7,760203507627.442
7.75,723121024976.7109
7.8,360382317627.2556
7.85,132275042262.40211
7.9,58068650128.07364
7.95,37541349556.21536
8.0,30088935785.04277
8.05,26745105583.069267
8.1,23577895031.458893
8.15,20372190654.08642
8.2,17941764375.8082
8.25,16048215583.853687
8.3,14693159065.53521
8.35,14103309416.168531
8.4,13997436011.26739
8.45,14435241896.715311
8.5,15722214017.606075
8.55,17993882641.336906
8.6,21391299443.596416
8.65,26728692804.248924
8.7,36684580384.51648
8.75,60066511823.59128
8.8,132242136129.83269
8.85,328363708784.10223
8.9,653970297433.3887
8.95,870633656271.7574
9.0,818366385519.51
9.05,569849260958.2809
9.1,303115778206.5099
9.15,138569067646.35892
9.2,68343006732.947914
9.25,41656776908.34498
9.3,29350652957.42045
9.35,22684010918.85565
9.4,19190456219.56983
9.45,17358072457.318935
9.5,16039231494.831268
9.55,15161606469.222187
9.6,15163619233.801529
9.65,16267732433.744535
9.7,18695423661.703964
9.75,23203582072.82607
9.8,33941781190.96727
9.85,65026888496.297905
9.9,146179634084.662
9.95,297490133336.68054
10.0,460003096769.4599
10.05,502324029568.84753
10.1,389266384617.54346
10.15,241139618485.35864
10.2,148748165334.62912
10.25,99844439273.09473
10.3,64198836302.1049
10.35,37870551516.17959
10.4,22944516184.08723
10.45,15881176294.823605
10.5,12105085060.266182
10.55,9566685234.204422
10.6,7965870371.424139
10.65,7155683910.716658
10.7,6891715152.691656
10.75,6754593883.5561695
10.8,6372703222.743963
10.85,5881402669.956379
10.9,5509841628.837889
10.95,5088236148.810867
11.0,4493313746.374525
11.05,4013709158.6143255
11.1,4013983827.8808575
11.15,4382674768.360126
11.2,4857711095.216074
11.25,4932508380.056948
11.3,4616368888.213607
11.35,4153441419.1272235
11.4,3712704469.751546
11.45,3377855047.4889216
11.5,3261203249.869633
11.55,3433753938.23655
11.6,4003713213.9497294
11.65,5434657135.54839
11.7,9477085610.3983
11.75,18682339338.647057
11.8,29645168974.26082
11.85,33245546895.969467
11.9,38019448028.92814
11.95,49701274025.63382
12.0,59930161588.33497
12.05,58284404053.98174
12.1,45451356877.68401
12.15,30227831207.17063
12.2,19376412418.089127
12.25,14134931660.404385
12.3,12911093604.87504
12.35,14205181706.29998
12.4,18175526489.297512
12.45,28966530446.303165
12.5,59940504694.09074
12.55,133990909886.57689
12.6,254575994774.5378
12.65,361118830967.8131
12.7,365587771586.82007
12.75,271310519342.16238
12.8,164461771390.47333
12.85,94941116678.07176
12.9,57111465776.919655
12.95,35100632943.08979
13.0,21480849166.104465
13.05,13588136857.734661
13.1,9333175235.501917
13.15,7079888929.629836
13.2,5849021865.576396
13.25,5151447684.525252
13.3,4721611563.813222
13.35,4421468670.055877
13.4,4116758351.5884256
13.45,3748615323.248773
13.5,3534848304.694757
13.55,3666131947.8938737
13.6,4019813144.502171
13.65,4419759254.284014
13.7,4811760359.573234
13.75,4956970846.967888
13.8,4553913687.721886
13.85,3796459179.616912
13.9,3232067833.17991
13.95,3074620578.231909
14.0,3327194598.9229045
14.05,4244395613.9562445
14.1,5805527456.518643
14.15,6963958386.3701935
14.2,6637852570.5058975
14.25,5307753907.401326
14.3,4273258023.755054
14.35,4046792110.4434314
14.4,4479503109.449903
14.45,5313075946.810689
14.5,6080018138.342038
14.55,6265570252.217808
14.6,6033098907.030138
14.65,6396066492.559646
14.7,8719747885.31953
14.75,14680523446.185839
14.8,25867564557.803417
14.85,42474307409.778755
14.9,61565975180.13942
14.95,76840285595.50609
15.0,79585069674.76256
15.05,67891906038.22433
15.1,48668380398.95104
15.15,30146827714.88061
15.2,17182884086.166645
15.25,9885959226.057457
15.3,6444129008.124483
15.35,5467276594.681083
15.4,6646094869.059483
15.45,9224688817.679432
15.5,9278744624.543688
15.55,6294524527.88565
15.6,4332424295.074695
15.65,3853192933.098335
15.7,3842057893.10955
15.75,4211422128.109098
15.8,4802843264.507608
15.85,5105070031.288369
15.9,5213401916.553602
15.95,6120614324.045324
16.0,9713628168.687424
16.05,17785732221.876842
16.1,28304724349.47664
16.15,33943455710.4569
16.2,30189978357.076977
16.25,21672201138.2499
16.3,14806706262.105377
16.35,11372479856.09343
16.4,10183964985.943974
16.45,9720301370.302563
16.5,8898415168.547424
16.55,7461208953.1904955
16.6,5974435438.868854
16.65,5130281496.627363
16.7,5091290915.85815
16.75,5180202587.828421
16.8,4650926063.092
16.85,3678762840.4708157
16.9,2920183525.391659
16.95,2610305497.383559
17.0,2567009914.2477145
17.05,2534126979.521883
17.1,2445121381.831202
17.15,2339591517.9688115
17.2,2165786430.297342
17.25,1901919149.4662807
17.3,1635486327.7669592
17.35,1485381974.889353
17.4,1521946833.0141072
17.45,1705752783.895797
17.5,1905852308.5283244
17.55,2093645368.3942053
17.6,2316882069.890478
17.65,2632092483.2090197
17.7,3372415614.1351185
17.75,5297233117.518391
17.8,9645338845.475567
17.85,17139473311.248743
17.9,24934342285.355434
17.95,29868417183.4225
18.0,33435138300.65196
18.05,34631908317.235214
18.1,32345976721.185837
18.15,27914140432.235546
18.2,22859872631.8931
18.25,18077136960.013935
18.3,14110340688.339287
18.35,11632369394.28406
18.4,11063311588.88358
18.45,11562893327.73569
18.5,11537898746.050987
18.55,10364286288.768988
18.6,8523950487.460055
18.65,6595822144.959818
18.7,4937227837.4177065
18.75,3718566754.8776155
18.8,2989346044.564416
18.85,2623318793.4296856
18.9,2419633452.092414
18.95,2293578640.0486493
19.0,2236781966.9555125
19.05,2276121884.4142528
19.1,2423278666.71174
19.15,2630320865.5910897
19.2,2925853351.1910143
19.25,3235551696.3835845
19.3,3375096479.0774493
19.35,3364320325.029052
19.4,3307523512.64322
19.45,3299818639.1049404
19.5,3312734296.9872603
19.55,3148806050.225977
19.6,2980671001.6120195
19.65,2988210757.500292
19.7,3178138885.6130724
19.75,3790091278.2400513
19.8,5248032489.34634
19.85,7789225864.958981
19.9,11451608654.85685
19.95,15932128593.30103
20.0,20008295925.010834
20.05,21819686284.73663
20.1,20780542853.80111
20.15,17747744946.91556
20.2,14024757057.433159
20.25,10887233960.14402
20.3,9253494349.36248
20.35,9504170112.476307
20.4,12022659785.204962
20.45,17536349268.654907
20.5,24359993344.786716
20.55,25074876772.99672
20.6,19625501732.585705
20.65,15029690612.458736
20.7,12789338016.695572
20.75,11905287946.407394
20.8,11451852580.513302
20.85,10842128329.370869
20.9,10011857440.074348
20.95,9174783649.528557
21.0,8408261607.721881
21.05,7717259137.389106
21.1,7035553493.283214
21.15,6384064236.300119
21.2,5856128009.063964
21.25,5436807009.854524
21.3,5059226013.439207
21.35,4767297401.125585
21.4,4682810474.88396
21.45,5003263566.6832905
21.5,5801964270.512094
21.55,7146077290.75435
21.6,9266446417.954393
21.65,12386127671.03563
21.7,16867449944.955883
21.75,22947541449.268673
21.8,30333278856.858288
21.85,38445924296.45138
21.9,45914753050.24079
21.95,49649553845.786804
22.0,47871824567.107376
22.05,41849281388.98485
22.1,33617334602.06801
22.15,25248553636.794334
22.2,18462620730.769085
22.25,14398876062.287502
22.3,13305072321.370207
22.35,14999467359.717766
22.4,18650326928.252842
22.45,22809463491.47618
22.5,26123065816.88475
22.55,27131745122.6588
22.6,25512842811.385826
22.65,22342997184.358727
22.7,18631583717.62169
22.75,15086506909.212759
22.8,12247194193.153704
22.85,10228212545.976593
22.9,8803033774.725355
22.95,7868264474.211545
23.0,7404571594.236658
23.05,7401640526.314497
23.1,7867236655.073413
23.15,8747194627.519669
23.2,9943987467.360312
23.25,12043165656.170115
23.3,17091894539.330343
23.35,28495912268.839096
23.4,49004221549.80644
23.45,76307456514.46991
23.5,101934456071.15724
23.55,114553752510.96709
23.6,107321620691.16139
23.65,84402184157.04277
23.7,57791807363.83584
23.75,38507792642.627144
23.8,29099862392.58851
23.85,26582347490.867706
23.9,27077835716.55152
23.95,28545935959.522392
24.0,30649305556.62791
24.05,34169584956.003742
24.1,39975686618.78059
24.15,48163113812.81431
24.2,58323339007.94115
24.25,70499357974.01181
24.3,84905059968.69154
24.35,97922224346.06624
24.4,103308616584.51677
24.45,97826593983.54543
24.5,84714081887.05954
24.55,69768872505.86877
24.6,58116897038.085106
24.65,52591837928.23433
24.7,52675696471.591286
24.75,55453012799.175514
24.8,57794555442.28537
24.85,56683549668.63023
24.9,51623052080.0488
24.95,44829975772.514046
25.0,37310269016.41377
25.05,28429328603.12334
25.1,20792379522.95402
25.15,15926043407.970852
25.2,13109690624.361137
25.25,11765549338.980364
25.3,11773840652.775932
25.35,13007521317.30337
25.4,14543256686.100069
25.45,14900007603.253431
25.5,13734628498.740784
25.55,12361313039.069027
25.6,12154838591.774252
25.65,13601334951.88859
25.7,16828935789.235659
25.75,21867232090.479725
25.8,28349555827.722324
25.85,35705862893.24534
25.9,43340153640.82442
25.95,50391656260.05183
26.0,54870579979.65529
26.05,54443100002.31687
26.1,49577265654.7495
26.15,42185773048.11936
26.2,33772759203.24135
26.25,25711893202.106503
26.3,19104473004.02207
26.35,14611952549.051958
26.4,11964439471.951937
26.45,10744075207.08807
26.5,10646647348.652866
26.55,11399792791.406044
26.6,12648106628.166677
26.65,13866205028.538126
26.7,14494913321.311546
26.75,14387027880.241228
26.8,13902308816.191807
26.85,13749758843.76152
26.9,14862135040.805588
26.95,16803023065.655933
27.0,16491896859.674864
27.05,13558733974.593979
27.1,11027160984.444328
27.15,9910622259.955427
27.2,10071381165.230997
27.25,11630915273.625048
27.3,14480201291.659153
27.35,17600500586.274586
27.4,19672993212.457687
27.45,20832829707.76281
27.5,23234445675.619343
27.55,30905805294.25111
27.6,52565477998.55453
27.65,101336783617.2443
27.7,179142117196.10358
27.75,259791984619.2236
27.8,304479222516.8867
27.85,305927131450.6246
27.9,274900238030.1445
27.95,222226661191.23022
28.0,174332344813.92743
28.05,157811919735.22696
28.1,163797540448.75748
28.15,173411817517.57516
28.2,170875970680.80344
28.25,151542454195.33322
28.3,119544756110.60701
28.35,85308557714.95511
28.4,59858847275.58637
28.45,45744181689.265144
28.5,39441555672.17605
28.55,36665639428.45543
28.6,35084835329.7872
28.65,34182186145.44422
28.7,33913798265.3023
28.75,34040824535.069748
28.8,34799344707.72881
28.85,35776760891.83574
28.9,35446361643.795525
28.95,33042041327.8645
29.0,28940487853.624016
29.05,24299638563.74489
29.1,20201756890.41069
29.15,17121709470.135565
29.2,15226343812.750511
29.25,14222897926.236979
29.3,13346577943.66196
29.35,12126321530.318933
29.4,10647191755.689796
29.45,9148931717.322937
29.5,7853617753.520128
29.55,6823292820.359154
29.6,5999858661.632866
29.65,5361325021.154288
29.7,4906994403.490374
29.75,4759998627.0520935
29.8,5073696184.406364
29.85,5725989095.431558
29.9,6266041673.21482
29.95,6377627602.021484
30.0,6360410011.34143
30.05,6836475737.8101635
30.1,8163830742.378155
30.15,10309720150.060991
30.2,12844757438.581928
30.25,15436780568.787712
30.3,17738660444.18313
30.35,19305871446.333908
30.4,19942093019.923443
30.45,19443075272.503166
30.5,17702172714.887974
30.55,15124733049.676432
30.6,12366368334.40614
30.65,9766967080.222279
30.7,7637887112.799983
30.75,6235730998.007798
30.8,5396458899.660194
30.85,4884597089.820658
30.9,4584093948.013157
30.95,4470639813.51836
31.0,4497090509.895424
31.05,4523182059.649902
31.1,4528273772.040696
31.15,4581600512.294476
31.2,4689034186.315861
31.25,4703258729.78281
31.3,4496882520.339921
31.35,4177299777.18306
31.4,3934185905.2427926
31.45,4063325832.7770615
31.5,4945883451.519289
31.55,6349286456.326399
31.6,6891154765.745563
31.65,6033429425.841749
31.7,5025359807.280919
31.75,5006363382.445182
31.8,6640350563.782969
31.85,9694995438.27853
31.9,12401051668.021544
31.95,12569489075.90872
32.0,10002399609.396303
32.05,6692385423.381659
32.1,4290444096.682061
32.15,3052430917.310936
32.2,2615120259.032497
32.25,2605208369.0999055
32.3,2772374762.8647575
32.35,2972650087.3374176
32.4,3139660868.1599154
32.45,3357418600.821815
32.5,3786919675.4472747
32.55,4455225373.08317
32.6,5305543423.487584
32.65,6550050639.639553
32.7,8550464026.886498
32.75,11388949586.563013
32.8,14695773117.149675
32.85,17816317597.198315
32.9,19793629592.20066
32.95,20014109201.26117
33.0,18349719141.976048
33.05,15325424554.682583
33.1,12045731106.578947
33.15,9211407052.239624
33.2,7172930033.34784
33.25,5985454403.193406
33.3,5393881875.615683
33.35,5184526577.56852
33.4,5255349685.939661
33.45,5514493483.115145
33.5,5812544308.361777
33.55,6059051673.085042
33.6,6184718143.236158
33.65,6211807087.794662
33.7,6233050159.989731
33.75,6305189676.819011
33.8,6381143862.627605
33.85,6349097953.3015995
33.9,6145960073.740011
33.95,5790188816.289299
34.0,5463574628.042492
34.05,5457732869.819683
34.1,5756105635.09853
34.15,5763100150.354449
34.2,5211926600.397989
34.25,4658249577.874027
34.3,4510719344.617475
34.35,4781876807.578031
34.4,5331462699.162397
34.45,5960234491.881384
34.5,6445433022.9333105
34.55,6745241250.572623
34.6,6954930049.549044
34.65,7105455611.796769
34.7,7137108765.528122
34.75,7007357740.44135
34.8,6712528045.201296
34.85,6221617648.652603
34.9,5583913278.711507
34.95,4912130269.699541
35.0,4320808368.181325
35.05,3919151212.368721
35.1,3816309941.363028
35.15,4156200610.6958966
35.2,5161023442.914016
35.25,7088000778.465064
35.3,9851112192.045631
35.35,12126432814.874378
35.4,12434903765.196936
35.45,11314774996.216227
35.5,9889597744.657629
35.55,8816596385.113506
35.6,8148641792.331601
35.65,7434780452.786075
35.7,6455286293.076494
35.75,5552614085.909448
35.8,5576286900.438841
35.85,7556050660.223874
35.9,11270254689.70278
35.95,13227348632.01193
36.0,10853906652.395916
36.05,7233103333.468664
36.1,5353636850.050009
36.15,5277993833.1996
36.2,5995323392.144218
36.25,6453665372.254015
36.3,6081753807.22543
36.35,5243494789.7247305
36.4,4701949081.080263
36.45,4793406530.759415
36.5,5250672396.42537
36.55,5645011232.812614
36.6,5789886774.257176
36.65,5755626979.074772
36.7,5703282368.239258
36.75,5721236779.2881565
36.8,5745681301.789007
36.85,5650124833.884508
36.9,5420202112.627575
36.95,5227367725.884499
37.0,5414101013.10928
37.05,6179930741.16741
37.1,6836356300.499428
37.15,6412753540.66334
37.2,5406284467.919028
37.25,4857480417.938008
37.3,5092709294.37137
37.35,5806700350.932075
37.4,6424881660.685744
37.45,6576023248.831035
37.5,6316955099.967947
37.55,5945811341.167728
37.6,5703309139.012685
37.65,5613882603.930487
37.7,5618577291.580507
37.75,5619064553.069526
37.8,5444914571.074494
37.85,5097114869.882621
37.9,4754338908.8363495
37.95,4634169601.737767
38.0,4902962505.157453
38.05,5710257100.523759
38.1,7124641835.580084
38.15,9011328756.302544
38.2,11022473011.182436
38.25,12603450638.684181
38.3,13227253892.643328
38.35,12558825444.876068
38.4,10817384921.49554
38.45,8750206958.787458
38.5,6857242897.486787
38.55,5369020716.511062
38.6,4411363215.000657
38.65,3964136283.6586494
38.7,3974195210.664894
38.75,4336786138.756552
38.8,4802924056.832624
38.85,5126429324.020868
38.9,5388746469.883734
38.95,5793555732.926499
39.0,6433877481.208327
39.05,7094551418.390623
39.1,7426675849.915035
39.15,7303568690.861229
39.2,6972590539.40755
39.25,6861596107.026939
39.3,7102154032.340074
39.35,7246515366.950145
39.4,6871489673.848288
39.45,6298693344.111614
39.5,6015209327.319129
39.55,6146118364.916167
39.6,6442084164.378958
39.65,6435130284.713172
39.7,6168028744.4694395
39.75,6131931842.316198
39.8,6531105194.028656
39.85,7107697852.644291
39.9,7384579337.147285
39.95,7097664995.225121
40.0,6334287543.30358
40.05,5352201310.363172
40.1,4463074167.115981
40.15,3839956375.2311378
40.2,3522791189.4306173
40.25,3455987632.50047
40.3,3617766439.815111
40.35,4139160823.294135
40.4,4863170214.396442
40.45,5083360391.901008
40.5,4600721498.900399
40.55,4085090590.122851
40.6,3965104444.632154
40.65,4104916095.872197
40.7,4191832453.1643796
40.75,4059953738.271147
40.8,3767712322.207278
40.85,3490219984.599099
40.9,3371452187.165705
40.95,3437739943.5988646
41.0,3613496601.463953
41.05,3802569457.528428
41.1,4021526647.5272737
41.15,4342285572.073972
41.2,4708744504.573655
41.25,4942161413.748697
41.3,5006432427.789154
41.35,5064652218.680947
41.4,5208915898.366521
41.45,5430429554.812975
41.5,5729518650.301707
41.55,6260029818.315218
41.6,7558454787.267385
41.65,10594445951.430653
41.7,15111099125.752659
41.75,17626281223.000072
41.8,15627391975.060314
41.85,11907719097.841442
41.9,9773200412.441565
41.95,9397010489.334034
42.0,9447035362.947058
42.05,8922993086.093344
42.1,7750463946.833564
42.15,6517056240.523259
42.2,5679705246.908427
42.25,5259191202.943388
42.3,5109263172.1850605
42.35,5081160967.151119
