2theta,Intensity
0.0,14716512.277143858
0.05,21138469.93788638
0.1,24347671.49247212
0.15,26435914.394900486
0.2,28331558.042113617
0.25,29971488.41497959
0.3,31757596.259970415
0.35,33785026.030439734
0.4,36101620.891848825
0.45,38567464.49911948
0.5,41253610.25685445
0.55,44296997.67429181
0.6,48332677.058462426
0.65,52477235.00998415
0.7,56486634.658975974
0.75,60489560.5173168
0.8,64842360.80661597
0.85,69725241.71445096
0.9,75057813.68443167
0.95,81132985.83444346
1.0,87967369.14950706
1.05,96039393.13388097
1.1,105007188.47421764
1.15,115074563.2029519
1.2,126702936.66680448
1.25,139862716.8585109
1.3,155065469.05387375
1.35,172800070.9960245
1.4,193947506.6286234
1.45,219099532.57717183
1.5,249515203.13651866
1.55,286737591.8801108
1.6,333278721.1050896
1.65,392849093.7568767
1.7,470703929.110164
1.75,575408812.4495705
1.8,720909857.038895
1.85,931319963.7951916
1.9,1255647026.9001234
1.95,1842904538.519325
2.0,3424148918.6489344
2.05,8662279241.890526
2.1,20766990852.432957
2.15,32856222151.998306
2.2,31035663262.474827
2.25,27523041483.45923
2.3,27419965304.58833
2.35,22354438832.865047
2.4,15524896839.70575
2.45,11229519294.306772
2.5,9595068244.498156
2.55,9412733587.575434
2.6,9977711217.642181
2.65,10796752149.856487
2.7,11549374061.5805
2.75,12619187658.099012
2.8,14414446563.500328
2.85,16122721855.98493
2.9,16156229491.150251
2.95,14865888030.505213
3.0,13716021423.615093
3.05,13435254226.676432
3.1,13875374256.440237
3.15,14809449327.640182
3.2,16223334286.877132
3.25,18065035630.569916
3.3,19945204239.544994
3.35,21299194065.019127
3.4,22462074348.53175
3.45,23719426008.657955
3.5,24982125580.35207
3.55,26532332874.81138
3.6,28638908753.40064
3.65,31267986029.387222
3.7,34115175398.04244
3.75,37285139220.81457
3.8,41293207799.35434
3.85,46810825087.35658
3.9,54284842690.57567
3.95,63657826490.8424
4.0,74861743296.2768
4.05,87744814992.58955
4.1,102675575110.74371
4.15,122002275759.23268
4.2,149903151237.30414
4.25,192110352765.03125
4.3,258392317859.25302
4.35,382068382363.8784
4.4,717669955737.0532
4.45,1719403667858.0637
4.5,3820459174169.632
4.55,6049147832575.697
4.6,6703625145095.468
4.65,6055020021418.263
4.7,5304864462968.84
4.75,4625712442552.565
4.8,3665824669644.6206
4.85,2660828253533.2603
4.9,1834624613505.4404
4.95,1189198477029.26
5.0,759262064906.2416
5.05,523844838871.0694
5.1,437263997306.4559
5.15,441795447494.5509
5.2,490361927840.4591
5.25,534053965710.60114
5.3,533337298248.185
5.35,505416416389.4257
5.4,477112486123.77496
5.45,428698861114.1505
5.5,357872702781.8358
5.55,293086190245.9294
5.6,251799236060.6236
5.65,229545675730.3052
5.7,213338967186.53802
5.75,198173142590.6895
5.8,180613812165.297
5.85,160214031338.95026
5.9,140043001058.85538
5.95,117445006380.37764
6.0,93590615874.0504
6.05,74107389004.4749
6.1,60814413068.26314
6.15,52719382175.100105
6.2,47666506516.001366
6.25,43984768287.99437
6.3,42676392216.12028
6.35,42701258666.03803
6.4,43439283242.495674
6.45,46947114311.205475
6.5,54523029524.02641
6.55,63167691987.04764
6.6,68156333901.929565
6.65,69351222786.57964
6.7,67805154409.7238
6.75,66670578509.25529
6.8,67850650180.57561
6.85,69385553126.16106
6.9,67632534147.39877
6.95,63867926628.94672
7.0,59079281562.17674
7.05,55793455380.47572
7.1,56230195987.85575
7.15,56641464631.55144
7.2,54141511551.40969
7.25,50177817387.31567
7.3,47276947917.939545
7.35,44984093919.10058
7.4,42025945741.13968
7.45,39032702917.872765
7.5,35627300639.09827
7.55,32381323811.098915
7.6,31575757586.205322
7.65,36313332482.30014
7.7,56310192350.10236
7.75,113850136111.6932
7.8,204555792616.02847
7.85,243940371264.1838
7.9,217287928415.2308
7.95,209665735964.78522
8.0,242114843699.25012
8.05,293611462585.71454
8.1,336828786869.72205
8.15,348423762513.5021
8.2,324581595414.5635
8.25,274545061168.9899
8.3,218336792933.43423
8.35,174093899087.95557
8.4,141486129331.5057
8.45,119288744437.6923
8.5,105193968885.88103
8.55,96059661014.06512
8.6,90397332984.27112
8.65,88717932421.43709
8.7,91844908930.54822
8.75,97665411688.97783
8.8,102988919331.58281
8.85,107114009533.8819
8.9,114461607075.13782
8.95,139027919655.4469
9.0,195908764732.62537
9.05,255624886783.15775
9.1,269843273292.9613
9.15,250988272918.2851
9.2,228395028779.20108
9.25,207195718432.72623
9.3,194193330570.66626
9.35,190708306476.51086
9.4,193955433489.69308
9.45,204892468881.65408
9.5,214208732661.9096
9.55,211535887210.44342
9.6,198026848249.37918
9.65,181530269397.59836
9.7,165783141310.24988
9.75,151715087049.25128
9.8,139403002762.06183
9.85,124062131117.43066
9.9,105654427577.05774
9.95,89538385959.2364
10.0,77400919145.86018
10.05,68949796028.5972
10.1,63789608872.78489
10.15,61614832372.48639
10.2,60374891562.596924
10.25,59968122249.70576
10.3,60946671636.73005
10.35,62876084177.02711
10.4,62643777911.888306
10.45,59804420422.93455
10.5,55583742530.04963
10.55,50198267605.102264
10.6,44854448411.02235
10.65,40199418471.05136
10.7,37175240826.396645
10.75,36138141042.66877
10.8,36085638450.44921
10.85,35377036092.81339
10.9,32956199083.591644
10.95,30456310409.09439
11.0,28861410499.640568
11.05,27177798313.53873
11.1,25242077138.767563
11.15,24039906889.31431
11.2,23658575178.554535
11.25,23493728451.86225
11.3,23304761187.177326
11.35,22544538827.620205
11.4,21551401550.584347
11.45,21073631794.310986
11.5,21016428383.007927
11.55,21072313712.247036
11.6,20880942170.72471
11.65,20721737613.935265
11.7,21309271240.66426
11.75,22902809715.03643
11.8,26576784042.87232
11.85,37670952787.69361
11.9,64657108493.44861
11.95,101257733923.05305
12.0,117291305014.94576
12.05,105131989549.41307
12.1,86093867601.41245
12.15,74914048162.09052
12.2,73621413539.03987
12.25,77601174168.43446
12.3,82970521724.40688
12.35,88327083108.2139
12.4,92880864522.86292
12.45,94423595642.45529
12.5,93475239873.35078
12.55,91523158429.11302
12.6,90233779300.08287
12.65,88507894507.7143
12.7,85973734284.68523
12.75,82907392950.66846
12.8,80005495703.90057
12.85,77686669138.5179
12.9,76441084894.21353
12.95,74995565851.94112
13.0,72045479848.89793
13.05,68360913317.86135
13.1,66259718518.706406
13.15,63753967919.243454
13.2,59172889476.15197
13.25,53435040859.19519
13.3,47289186920.08625
13.35,41432993472.87554
13.4,37559511903.30636
13.45,35353240031.67001
13.5,33255404104.653458
13.55,31285401747.51432
13.6,30031051416.831326
13.65,29071861446.81963
13.7,28596488238.53309
13.75,28706879630.027294
13.8,28157897364.639652
13.85,26884378611.249096
13.9,25854269482.81617
13.95,25137254039.468678
14.0,24350599318.237175
14.05,23942389074.501858
14.1,24387634991.662846
14.15,24868021290.538757
14.2,24038648011.872032
14.25,22376590570.899742
14.3,21219393929.804325
14.35,20475435259.258778
14.4,19459240147.67948
14.45,18335081956.911224
14.5,17581543167.848915
14.55,17211354295.842957
14.6,16941703212.032402
14.65,16710978782.411272
14.7,16551303492.229765
14.75,16150510240.049873
14.8,15638148087.869787
14.85,15095087233.899319
14.9,14577160549.878254
14.95,14245432145.516033
15.0,14023592014.104816
15.05,13864373992.77405
15.1,13708042074.57691
15.15,13319977667.90549
15.2,12874458220.966103
15.25,12452690933.481384
15.3,12106598396.080162
15.35,11892258909.502201
15.4,11867905419.64388
15.45,12088178724.519867
15.5,12613161296.029074
15.55,14170827484.222147
15.6,18392896763.269142
15.65,25108439215.277523
15.7,29672831396.070793
15.75,29153683571.301964
15.8,26377858065.494156
15.85,23915089164.323414
15.9,22273970919.10979
15.95,21092215355.363182
16.0,20019941421.60477
16.05,19309478631.68213
16.1,19041582564.19863
16.15,19109029580.03056
16.2,19573766139.07957
16.25,20600308989.395294
16.3,21867984880.870815
16.35,22409432544.298496
16.4,21981079078.408142
16.45,21358269824.923515
16.5,20793167010.62279
16.55,20236147557.778378
16.6,19871994818.046402
16.65,19686551396.931767
16.7,19778056476.80836
16.75,20155613539.25338
16.8,20396683366.003166
16.85,20345982381.89019
16.9,20323139241.07499
16.95,19908525344.868725
17.0,19047057873.438103
17.05,18504311540.754284
17.1,18317916874.675858
17.15,18155928695.405773
17.2,17748532225.69232
17.25,17069705393.279282
17.3,16180259161.637
17.35,15185461663.721773
17.4,14340585685.916546
17.45,13784818952.366266
17.5,13554207217.983505
17.55,13441943967.115757
17.6,13438673565.731894
17.65,13573357320.728004
17.7,13464004806.363258
17.75,13023013547.11128
17.8,12701151759.25832
17.85,12606980224.200346
17.9,12575279092.796122
17.95,12637323256.037653
18.0,12823329082.429728
18.05,12976822776.674616
18.1,13004089009.77479
18.15,12928889415.610193
18.2,12736327306.047802
18.25,12448160018.865276
18.3,12141323389.27536
18.35,11948170266.662933
18.4,11921871508.737984
18.45,12024111543.979631
18.5,12316269798.350756
18.55,12620204000.491604
18.6,12606281916.202885
18.65,12364384951.11499
18.7,12105787326.795519
18.75,11922132464.65052
18.8,11730282669.653257
18.85,11513453388.002188
18.9,11334196117.704664
18.95,11237208233.887123
19.0,11237015444.562878
19.05,11211909397.730682
19.1,11091921743.483051
19.15,10990287955.704453
19.2,11055537538.121187
19.25,11266655233.993832
19.3,11556074655.217363
19.35,11731808172.883583
19.4,11738840097.920263
19.45,11630681694.489117
19.5,11452697538.269112
19.55,11243706509.277779
19.6,11109011554.312437
19.65,11219236493.28788
19.7,11748704216.29067
19.75,12538288498.600088
19.8,13059978081.866835
19.85,13107317859.148544
19.9,12816905234.523453
19.95,12470321618.398188
20.0,12283773624.217278
20.05,12286281565.341011
20.1,12361618869.683846
20.15,12445517208.430998
20.2,12463707844.013702
20.25,12522840226.94124
20.3,12548241098.623718
20.35,12511044932.177992
20.4,12553814179.638903
20.45,12726934693.54216
20.5,12995142443.59024
20.55,13228585503.261036
20.6,13551261820.409428
20.65,14230566718.314398
20.7,15503952034.835888
20.75,17237675692.307224
20.8,18552224257.34234
20.85,18767881797.74093
20.9,18276511496.45117
20.95,17837719661.478397
21.0,17709753570.26624
21.05,17795516824.912052
21.1,17850492064.60334
21.15,17794801532.24906
21.2,17728535457.84518
21.25,17740841446.059566
21.3,17891773558.392994
21.35,18145123508.709503
21.4,18450531711.881763
21.45,18642036386.237392
21.5,18668978727.9351
21.55,18570088954.21705
21.6,18633407872.19926
21.65,19026239564.816757
21.7,19224578819.528904
21.75,19174536534.255775
21.8,18967088824.456463
21.85,18637147979.136612
21.9,18413431090.793076
21.95,18403783780.009903
22.0,18497144655.26726
22.05,18469424176.147427
22.1,18529972656.72811
22.15,18786479217.552967
22.2,18989827017.16479
22.25,19263139523.133503
22.3,19644799334.038357
22.35,20052043713.61281
22.4,20482924070.733
22.45,21070485716.928207
22.5,21871873303.380386
22.55,22822700040.696163
22.6,23958681667.303093
22.65,25428131721.987198
22.7,26905381573.584705
22.75,28025484714.60412
22.8,28726956716.348785
22.85,29078092929.945343
22.9,29219244512.817013
22.95,29521982808.94656
23.0,30254131267.790527
23.05,30913973243.45945
23.1,31352366268.759064
23.15,31496094947.083763
23.2,31575214734.577377
23.25,32096741125.63157
23.3,33007913421.573826
23.35,33377751841.746704
23.4,33407876634.55129
23.45,33987582991.11042
23.5,35165258969.28341
23.55,36273296651.28802
23.6,37206094122.05161
23.65,38118185517.89144
23.7,38649139380.23589
23.75,38689525437.514824
23.8,38582327865.2758
23.85,38544134379.775894
23.9,38654463854.86704
23.95,38521581274.080956
24.0,38146626113.3704
24.05,37783199962.61718
24.1,38043033084.90625
24.15,39161998271.71258
24.2,40231361203.71958
24.25,40890554783.85702
24.3,41071775513.33945
24.35,41481179375.99797
24.4,43121248934.36122
24.45,45905592125.94632
24.5,48928707818.17389
24.55,52316198488.77422
24.6,55920431845.473595
24.65,58673553327.3897
24.7,60815640784.36333
24.75,63861231956.56073
24.8,67123932921.21418
24.85,67619390336.097725
24.9,67210559473.95922
24.95,67706183530.442474
25.0,67637433262.25628
25.05,67017826066.09375
25.1,67690067233.61542
25.15,68972040143.19446
25.2,69427238694.35231
25.25,69291527784.25894
25.3,69493796676.40962
25.35,70605268859.15996
25.4,72309398731.43077
25.45,72812599096.30875
25.5,72123249751.82811
25.55,71325249801.52223
25.6,72308090101.5006
25.65,75317019308.596
25.7,78910191764.75725
25.75,84170902295.58691
25.8,94389750614.48814
25.85,107728504409.44807
25.9,120537008317.65439
25.95,134110734811.5553
26.0,145875204561.38345
26.05,152762856910.0621
26.1,152438733320.65857
26.15,147736162658.0522
26.2,140154985575.90268
26.25,127131952080.16518
26.3,112269661900.86078
26.35,97825201457.55334
26.4,81683087214.02895
26.45,66607618637.21524
26.5,54801591207.179184
26.55,47210492062.349655
26.6,42335053567.677124
26.65,39042020382.46211
26.7,36963214388.40164
26.75,35116435067.67861
26.8,33890263706.63153
26.85,33556533066.13418
26.9,33265165322.98534
26.95,32398997493.089493
27.0,31302925126.580082
27.05,30402166844.110374
27.1,30254774267.241226
27.15,30695164886.206455
27.2,31364053433.03441
27.25,32168756256.54077
27.3,32805082281.78154
27.35,32726848969.074547
27.4,31710896522.234524
27.45,30582420278.434383
27.5,29719942814.98411
27.55,29317416035.944267
27.6,29170514276.027596
27.65,28739148522.08935
27.7,27895935914.250492
27.75,26933750185.241993
27.8,26363483967.226288
27.85,26236665999.439655
27.9,25871286687.27041
27.95,25179553436.30078
28.0,24287671746.080738
28.05,23259288550.94953
28.1,22187639049.55694
28.15,21203543230.280945
28.2,20246729623.56839
28.25,19365185069.33126
28.3,18417252736.301243
28.35,17425903998.695957
28.4,16783610278.157103
28.45,16558805001.788729
28.5,16325883657.182425
28.55,16002049692.399282
28.6,15700624560.758797
28.65,15339162828.115475
28.7,14949940411.384438
28.75,14644238526.93667
28.8,14216048268.801788
28.85,13742923325.500072
28.9,13466336643.4742
28.95,13389780258.039442
29.0,13442713412.393896
29.05,13487173000.82286
29.1,13494896144.551657
29.15,13456076027.758518
29.2,13353659328.083353
29.25,13269457849.591196
29.3,13202093891.157017
29.35,13063555919.909925
29.4,12864444648.842405
29.45,12723699181.594654
29.5,12698949605.577278
29.55,12754820337.97717
29.6,12702499814.213453
29.65,12429631152.398703
29.7,12117467759.99684
29.75,11944838549.536009
29.8,11918474832.886189
29.85,11895818598.206886
29.9,11757196757.066235
29.95,11567044907.815086
30.0,11384189852.285524
30.05,11170932467.304735
30.1,10910779891.718683
30.15,10625171233.270031
30.2,10327432911.50803
30.25,10076807716.585405
30.3,9870373909.052786
30.35,9689363951.048267
30.4,9542578269.297935
30.45,9366489373.383978
30.5,9172840416.064833
30.55,9017614667.064066
30.6,8876612796.100414
30.65,8758205375.265678
30.7,8686784060.679
30.75,8702743039.26612
30.8,8810608186.351236
30.85,8894878926.539928
30.9,8887208473.052567
30.95,8790893818.696598
31.0,8566378481.543215
31.05,8299715139.585793
31.1,8153950224.368778
31.15,8124851290.175071
31.2,8085780259.212622
31.25,8006712463.735678
31.3,7937189038.802507
31.35,7921484294.534473
31.4,7887949885.099255
31.45,7847792722.32976
31.5,7837463237.340901
31.55,7890465501.586854
31.6,7928078240.438246
31.65,7878321461.92596
31.7,7846624453.387165
31.75,7901642856.19872
31.8,8080844650.397309
31.85,8499995935.982456
31.9,9247340126.364113
31.95,10135155668.517946
32.0,10789729060.678217
32.05,10907363294.004192
32.1,10635122187.78757
32.15,10174254115.510836
32.2,9679048754.235075
32.25,9295349743.61431
32.3,8977834268.803957
32.35,8598978817.968704
32.4,8268656811.548398
32.45,8057272464.951469
32.5,7914014384.760732
32.55,7793778265.038964
32.6,7662840152.142462
32.65,7569019311.070403
32.7,7476227557.755284
32.75,7320866537.195461
32.8,7173723256.161401
32.85,7087947866.574745
32.9,7057483406.934744
32.95,7100780590.124746
33.0,7148633932.652599
33.05,7147616285.704845
33.1,7191481531.931818
33.15,7347618413.567961
33.2,7524197105.403532
33.25,7580423762.260133
33.3,7512558593.186134
33.35,7377631765.942428
33.4,7183689308.198167
33.45,6977238423.889158
33.5,6810372621.131788
33.55,6699038207.523717
33.6,6642187231.894623
33.65,6604224016.673816
33.7,6567374072.380636
33.75,6535649400.75306
33.8,6515654114.135618
33.85,6512299179.196468
33.9,6484975007.705857
33.95,6401558184.903672
34.0,6283358187.250317
34.05,6159781482.121948
34.1,6040334965.144526
34.15,5970521472.539046
34.2,5958943483.994425
34.25,5969255892.43214
34.3,5981055051.460426
34.35,5983818073.587697
34.4,6034211264.214544
34.45,6195716367.157902
34.5,6476890874.452137
34.55,6789054921.149136
34.6,6993155682.210167
34.65,7007933976.648401
34.7,6858002781.912068
34.75,6642379282.346683
34.8,6428377029.116815
34.85,6207813939.620121
34.9,6006436607.955121
34.95,5845706486.33271
35.0,5713163756.021114
35.05,5630016467.380054
35.1,5581800295.5873785
35.15,5570305269.765387
35.2,5589411406.557959
35.25,5585580934.520647
35.3,5556880776.103835
35.35,5506278408.163028
35.4,5472116781.229956
35.45,5469120938.0374155
35.5,5450440333.005353
35.55,5434957516.192821
35.6,5486904570.791018
35.65,5602439958.010348
35.7,5765010650.711164
35.75,5960417041.509002
35.8,6124419834.55425
35.85,6218022926.323692
35.9,6291177581.313108
35.95,6403497885.758455
36.0,6516370649.165063
36.05,6584003153.320384
36.1,6594581267.610771
36.15,6519738576.650375
36.2,6382750049.959423
36.25,6283782473.981234
36.3,6293023374.809666
36.35,6382329335.924118
36.4,6444220665.202196
36.45,6447173338.531186
36.5,6439881071.595654
36.55,6449283630.141109
36.6,6517566339.7403755
36.65,6647445518.213397
36.7,6798223178.254475
36.75,6884987738.762708
36.8,6875651888.906994
36.85,6830005570.288891
36.9,6766791157.05792
36.95,6663721680.077923
37.0,6515825474.064218
37.05,6336051863.950824
37.1,6141565747.168808
37.15,5966141969.54568
37.2,5851071616.714979
37.25,5777108033.556882
37.3,5707271539.117815
37.35,5640946705.455306
37.4,5650846608.202362
37.45,5829971888.662403
37.5,6154772626.806373
37.55,6509995874.173589
37.6,6752320489.305549
37.65,6830184805.305664
37.7,6767855127.835495
37.75,6682400722.398223
37.8,6638317904.56411
37.85,6618461734.043247
37.9,6652476951.522348
37.95,6740312554.891699
38.0,6749955159.468841
38.05,6623797446.235097
38.1,6445744793.643917
38.15,6301807921.602539
38.2,6185225634.627977
38.25,6083807382.068988
38.3,6018523906.981099
38.35,5951171212.150382
38.4,5871657081.974792
38.45,5793668783.638061
38.5,5692609615.159285
38.55,5575700406.877724
38.6,5492961844.303541
38.65,5453453520.924573
38.7,5416946597.9059515
38.75,5373541501.958768
38.8,5320671778.2887945
38.85,5260128546.886157
38.9,5192532788.101003
38.95,5153512931.13598
39.0,5150582558.948632
39.05,5206899375.32732
39.1,5359404883.785478
39.15,5667782651.379653
39.2,6127537649.082635
39.25,6635276149.611384
39.3,7033379519.6315
39.35,7178416913.928917
39.4,7086894369.368351
39.45,6876019249.740806
39.5,6624692430.09388
39.55,6374572197.809082
39.6,6166379967.505249
39.65,5984011529.6832285
39.7,5843518437.731371
39.75,5778936959.521466
39.8,5776017631.889426
39.85,5802658221.14834
39.9,5848620598.541124
39.95,5885941111.978884
40.0,5906852624.501589
40.05,5932919318.481404
40.1,5978242986.246059
40.15,6004259361.66856
40.2,6005461007.191064
40.25,6006897451.720213
40.3,6027326193.092554
40.35,6076886097.006786
40.4,6115061688.508735
40.45,6102315301.886925
40.5,6070556764.466742
40.55,6080255338.977449
40.6,6162106442.682837
40.65,6335053647.727267
40.7,6573210192.7537985
40.75,6799178325.7203455
40.8,6954645658.352094
40.85,7026375164.902766
40.9,7029234378.59759
40.95,7006389230.785361
41.0,6946286039.901484
41.05,6816332490.235559
41.1,6638384779.489653
41.15,6455506367.327524
41.2,6309068742.997837
41.25,6224343652.362958
41.3,6184059270.160104
41.35,6218317258.318931
41.4,6363011579.737794
41.45,6607633022.031253
41.5,6878535162.930427
41.55,7111704001.309828
41.6,7271017138.951684
41.65,7331963270.652823
41.7,7295003359.374404
41.75,7145233907.271213
41.8,6916699977.738856
41.85,6716041648.274546
41.9,6596260513.069024
41.95,6549464546.154947
42.0,6596142236.7007265
42.05,6828605290.663482
42.1,7396101064.2680025
42.15,8458685967.290606
42.2,9965159670.931234
42.25,11526770038.0666
42.3,12698359158.830015
