2theta,Intensity
0.0,9528748.867643792
0.05,16641354.932349794
0.1,20450037.11786512
0.15,23595151.398947988
0.2,25277338.276433665
0.25,26564379.839265518
0.3,27983558.927936
0.35,29648779.401219953
0.4,31820121.194626644
0.45,34191248.01600298
0.5,36777562.313771345
0.55,39852111.73907909
0.6,43334346.687771946
0.65,46875091.05653731
0.7,50369897.27458557
0.75,54722777.9090128
0.8,59220454.56786977
0.85,64237780.43172151
0.9,70028904.04876474
0.95,76266853.25732422
1.0,82875445.45204005
1.05,90014236.49058944
1.1,98369665.8799355
1.15,108035198.9532769
1.2,118719253.17606059
1.25,130791497.63098301
1.3,144576387.77280614
1.35,160602211.599294
1.4,179373399.99571705
1.45,201764942.56396037
1.5,228702978.17828754
1.55,261780838.70835727
1.6,303014894.7132954
1.65,355580644.0330704
1.7,425083041.59553975
1.75,518236308.3949954
1.8,648476324.1833764
1.85,841012051.483415
1.9,1160601440.8138309
1.95,1889127513.1968262
2.0,4141034148.5656867
2.05,9918924500.35847
2.1,17859210917.017956
2.15,19957058280.100418
2.2,18076550122.460644
2.25,22628220141.435177
2.3,29303759064.32645
2.35,26789605585.58554
2.4,19583918638.587254
2.45,12748969984.606512
2.5,8793478742.634447
2.55,7917734623.101787
2.6,8753636719.039082
2.65,10148667692.179792
2.7,11419709129.819035
2.75,12639757910.192484
2.8,13824589882.590982
2.85,14590470295.534214
2.9,14734145834.028011
2.95,14943037882.416294
3.0,15632780216.768818
3.05,16447756348.859322
3.1,17498958746.268307
3.15,18439363893.85742
3.2,18661008228.801777
3.25,18470259101.249466
3.3,18983197612.714443
3.35,20465166949.901913
3.4,21800542410.28838
3.45,22376826096.87387
3.5,22776724575.06172
3.55,23561331179.955887
3.6,24841299880.699623
3.65,26545531198.267105
3.7,28689693390.827854
3.75,31418749437.006344
3.8,35012465117.69428
3.85,39830803994.5343
3.9,46416843537.58398
3.95,54497280361.93938
4.0,63512653749.36583
4.05,74651913773.77289
4.1,89566569581.19145
4.15,109927360615.56465
4.2,138012315890.0308
4.25,177172940608.29575
4.3,235821848642.63666
4.35,343859569118.3404
4.4,637175705375.3352
4.45,1577174996076.4011
4.5,3743650764132.7754
4.55,6193294616803.488
4.6,6602126953006.09
4.65,5258803370356.329
4.7,3716233769300.9824
4.75,2728105277330.817
4.8,2127143393559.0334
4.85,1572350834654.9377
4.9,1082126443457.4806
4.95,734389657085.5056
5.0,547170683605.9749
5.05,467925685908.8361
5.1,431812164054.67993
5.15,411267574244.42725
5.2,396587678358.8638
5.25,408059936344.05304
5.3,449949347983.4716
5.35,466782964137.16473
5.4,432888215056.75
5.45,377153786857.60803
5.5,327733911851.0339
5.55,291819124764.5908
5.6,261044949982.0484
5.65,233187505392.05154
5.7,214923616604.22424
5.75,205603643676.95407
5.8,198191932789.17557
5.85,185110941180.39014
5.9,168759301894.37527
5.95,158599852289.93613
6.0,152309530604.16568
6.05,143759983314.5033
6.1,131914222699.43985
6.15,121663232062.27147
6.2,117457155973.58778
6.25,119058164434.45583
6.3,118302328400.80371
6.35,116286829639.23103
6.4,116351804627.30557
6.45,114825606187.36723
6.5,107350049305.95985
6.55,97163011710.25775
6.6,92845300298.89467
6.65,95235812336.99084
6.7,96403458693.61469
6.75,95618047746.02965
6.8,93851003458.41951
6.85,90941207968.20538
6.9,84916694610.9884
6.95,78994916350.79799
7.0,73477906871.39867
7.05,67882976309.37982
7.1,63859873560.505066
7.15,60959959789.05245
7.2,58548714986.30501
7.25,55744672276.727196
7.3,52944959496.72122
7.35,51413338591.15882
7.4,49060807982.35018
7.45,45704174025.18147
7.5,42543485374.35376
7.55,40735422859.73077
7.6,40203942240.73073
7.65,40086355228.40175
7.7,43183191637.426476
7.75,59270780062.42552
7.8,108133629062.11266
7.85,192207780501.68005
7.9,251279690885.76282
7.95,245444687022.8963
8.0,215999316127.65488
8.05,191569907476.25696
8.1,173738166706.5882
8.15,163424274784.02307
8.2,154588177108.686
8.25,140026737185.51343
8.3,124670330132.87518
8.35,114253431450.14665
8.4,108095060603.32373
8.45,102076054415.48984
8.5,96049898352.00455
8.55,92435082577.7721
8.6,90757426182.22992
8.65,88094275116.45879
8.7,84377157793.5778
8.75,81521288201.37149
8.8,79283661919.2917
8.85,77644939470.19781
8.9,78277605453.4144
8.95,86559672148.27956
9.0,113874553302.57729
9.05,168835171638.7031
9.1,224524130247.1291
9.15,239477091214.6343
9.2,225804242089.62897
9.25,202713322289.98593
9.3,177037594529.49475
9.35,156438525654.28113
9.4,141401218260.9825
9.45,130956154980.33154
9.5,123518378937.96843
9.55,117444074799.55025
9.6,113439733560.31807
9.65,113090744756.79532
9.7,114432733397.67563
9.75,114084992635.57555
9.8,111702268191.82314
9.85,106385254087.80438
9.9,99779916001.5478
9.95,92777456997.69241
10.0,87881578120.8599
10.05,85838458887.48032
10.1,84680322658.57315
10.15,83150667450.83467
10.2,82088870092.187
10.25,82146057936.16457
10.3,82065373225.36763
10.35,81351032718.71474
10.4,80600052859.68163
10.45,78833020378.84381
10.5,74631386975.40706
10.55,69773359020.94711
10.6,66873362510.02505
10.65,64625924339.06511
10.7,62333922347.9551
10.75,60206134491.43174
10.8,57144171740.762634
10.85,53410790994.432396
10.9,50471218710.9279
10.95,48102279968.43083
11.0,45889087248.41397
11.05,44357407075.900055
11.1,42935123139.00405
11.15,40732294744.818756
11.2,38842556385.64423
11.25,37559953909.48523
11.3,36662298249.56949
11.35,35947090044.3862
11.4,35324596619.828636
11.45,34785011555.155876
11.5,34159878601.740078
11.55,33179512210.640045
11.6,32098398406.130886
11.65,31589013106.935143
11.7,31655022740.926853
11.75,32007759439.78137
11.8,33214516229.69281
11.85,35581875724.954865
11.9,40223744027.43747
11.95,51848920031.48845
12.0,73261279393.30219
12.05,91921965891.11385
12.1,94490356768.0333
12.15,86445784133.6052
12.2,77961637960.9028
12.25,72007022963.98138
12.3,68098801559.26727
12.35,66106558760.89269
12.4,65835467684.73341
12.45,65575395943.4016
12.5,65038460770.086105
12.55,64916082886.01803
12.6,64130693201.20732
12.65,62981075460.31712
12.7,61241711950.37214
12.75,58799206288.833694
12.8,57111580638.4406
12.85,56502603081.240425
12.9,56356752902.093735
12.95,56024589893.75088
13.0,54771581489.82122
13.05,52677462558.28963
13.1,51028877585.55005
13.15,49596126108.21158
13.2,47961146045.5368
13.25,46945222618.35249
13.3,47412851028.2497
13.35,48731149639.73997
13.4,49201692858.608055
13.45,48637204858.26622
13.5,47898662383.33247
13.55,46492909931.60249
13.6,44673424473.49197
13.65,42869100290.25247
13.7,41392437274.95576
13.75,41107648178.64662
13.8,41629540626.84624
13.85,41550209875.31954
13.9,40511530256.60454
13.95,38841450220.438705
14.0,37515398776.41529
14.05,37377069417.99003
14.1,37964221320.59229
14.15,38288556000.36019
14.2,38162580088.786514
14.25,37744368417.364174
14.3,37084137978.175224
14.35,35913607741.18449
14.4,34990496841.911705
14.45,34382458370.16321
14.5,33574614049.844784
14.55,32998818723.310783
14.6,32730077829.060444
14.65,32120957884.679764
14.7,31148867506.309853
14.75,30160395720.57664
14.8,29587914167.165154
14.85,29710367669.558037
14.9,30208914452.930645
14.95,30193822748.673744
15.0,29707746156.64591
15.05,29381314243.34832
15.1,28835176538.6461
15.15,28006080169.745716
15.2,27522730200.276234
15.25,27385711692.879036
15.3,27159870859.939926
15.35,26583002554.229877
15.4,25588123429.626476
15.45,24705519145.78843
15.5,24137261817.34584
15.55,23742041336.025948
15.6,23989673520.4576
15.65,25639398256.545307
15.7,29191864511.364056
15.75,33799590931.45861
15.8,36594834774.59973
15.85,36655992821.167015
15.9,35328644955.66371
15.95,33840810993.556793
16.0,32346466851.85468
16.05,30715218536.668415
16.1,29029995162.27752
16.15,27659317149.752872
16.2,26897877351.901924
16.25,26647288664.836967
16.3,26825867060.9904
16.35,27213613728.940044
16.4,27682376511.446983
16.45,28115505785.55074
16.5,28185325423.496975
16.55,27897932070.51537
16.6,27675942573.377415
16.65,27430727769.66652
16.7,27302527109.48218
16.75,27576350199.032017
16.8,27649466992.999954
16.85,27337200237.158146
16.9,26970377616.821144
16.95,26768865192.64559
17.0,26734589257.086353
17.05,26999411542.900753
17.1,27434024006.86149
17.15,27896973127.650627
17.2,28121049363.05509
17.25,27946737102.32268
17.3,27461499985.46041
17.35,26928615135.342403
17.4,26646692594.586838
17.45,26791381332.032974
17.5,27174472858.008274
17.55,27255360535.9256
17.6,26906354400.78386
17.65,26438497733.424232
17.7,26197299877.35469
17.75,26270736916.109177
17.8,26365366424.529797
17.85,26120617626.067165
17.9,25863380525.709625
17.95,25946822927.31674
18.0,26251310979.21963
18.05,26339759105.601803
18.1,26270908638.621304
18.15,26145357317.20447
18.2,25831757557.859783
18.25,25477298850.436287
18.3,24983693034.76117
18.35,24635779217.281464
18.4,24751443126.838413
18.45,24938390678.870136
18.5,25042462816.157074
18.55,25115903643.44039
18.6,25354418907.136715
18.65,25797562396.96814
18.7,25902502828.69387
18.75,25718472180.356594
18.8,25496171738.661804
18.85,25330366700.740005
18.9,25134979444.17475
18.95,24772575949.022
19.0,24505385610.93727
19.05,24526059875.968815
19.1,24872129322.62523
19.15,25203091406.25974
19.2,25124033823.537777
19.25,24878300785.150333
19.3,24813843828.782024
19.35,24899307590.45988
19.4,25220802346.583824
19.45,25441732119.01099
19.5,25188790130.349537
19.55,24799806460.468147
19.6,24857439684.638294
19.65,25321724596.644875
19.7,25659356381.404408
19.75,25957099004.04172
19.8,26791939833.064148
19.85,28023297640.584816
19.9,29149613199.29499
19.95,29657445203.516087
20.0,29225105648.558384
20.05,28493374079.01691
20.1,27901213132.5729
20.15,27618996956.777428
20.2,27431418935.512302
20.25,27107749671.68245
20.3,26997533158.947598
20.35,27331326060.04786
20.4,27849583562.048046
20.45,28460830387.002987
20.5,28741531474.58173
20.55,28752994461.34973
20.6,28864111824.4235
20.65,28923939891.478554
20.7,28969661526.930542
20.75,29111268142.598557
20.8,29140691518.56285
20.85,29516468683.48921
20.9,30478691845.618008
20.95,31366670247.4876
21.0,31621129206.12153
21.05,31498200143.884686
21.1,31356017085.145367
21.15,31211608563.071247
21.2,31131498469.886364
21.25,31114742695.65359
21.3,31240503130.953545
21.35,31526839237.818394
21.4,31473315994.108253
21.45,31183744475.726013
21.5,31164580867.4803
21.55,31104334177.24388
21.6,30799680995.26287
21.65,30816298292.05575
21.7,31055099515.78882
21.75,31428567413.81227
21.8,31708613505.063923
21.85,31856602957.265274
21.9,31780668177.773792
21.95,31431516104.896328
22.0,31131480142.718323
22.05,31322860340.031868
22.1,31878629657.717613
22.15,32297432569.113754
22.2,32439376693.905506
22.25,32600272804.73429
22.3,32781920579.146355
22.35,33069564759.257828
22.4,34013128071.893085
22.45,35303328442.90583
22.5,36338605498.09064
22.55,37036179981.738686
22.6,37675537966.30232
22.65,37975359371.65223
22.7,38039745084.2567
22.75,38257800305.77084
22.8,38913075936.28511
22.85,40205714736.491516
22.9,41198457159.513435
22.95,41646382848.62705
23.0,41972629008.11089
23.05,41949358072.345825
23.1,41592291078.661545
23.15,41151049006.62349
23.2,40954189620.599365
23.25,40841251114.86761
23.3,40960979820.91949
23.35,41411568744.63128
23.4,41647343235.651855
23.45,41240645673.21919
23.5,40666218979.25642
23.55,40315610011.04996
23.6,40047194518.737595
23.65,39783004581.11998
23.7,39228750232.155525
23.75,38587246012.23253
23.8,37922657615.05119
23.85,37163548894.314896
23.9,36328958131.508644
23.95,35520203493.82589
24.0,34774879983.10864
24.05,34276711939.522095
24.1,34030471579.79999
24.15,34067622642.377464
24.2,34258218577.06244
24.25,34721332961.91139
24.3,35172481742.24434
24.35,35295083276.11467
24.4,35481174829.76178
24.45,35687008702.25287
24.5,35969818897.23751
24.55,36603449508.299995
24.6,37315505604.78328
24.65,37823384858.404945
24.7,37960249047.689705
24.75,37899231077.76541
24.8,38120622229.95147
24.85,39047756006.409805
24.9,40358352918.16514
24.95,41871257330.17203
25.0,43335661944.44147
25.05,44910596920.8493
25.1,47319994360.85992
25.15,51463628349.4053
25.2,56430126039.63087
25.25,60471649882.52176
25.3,64119401220.02057
25.35,68385369149.673546
25.4,74495902334.20844
25.45,81580075919.02574
25.5,88650467474.59354
25.55,96987004577.99008
25.6,102800834765.92326
25.65,105455601371.12672
25.7,105531091511.98404
25.75,102505431766.01384
25.8,98285675234.17685
25.85,92442386353.46068
25.9,85512618555.49734
25.95,78909662912.92616
26.0,72409842112.11285
26.05,66107992973.09407
26.1,59469634522.35901
26.15,53002911048.20279
26.2,47725410104.015915
26.25,42921187798.297806
26.3,39861645368.58454
26.35,38418847552.149376
26.4,37601701712.20869
26.45,36303439987.83696
26.5,34169270462.959473
26.55,31996374392.278564
26.6,29986400387.525154
26.65,28014727744.444195
26.7,26790768357.64597
26.75,26420845831.33282
26.8,26102946561.22738
26.85,25429112393.46596
26.9,24792437543.33928
26.95,24274244287.898552
27.0,23621040055.35737
27.05,23048260328.114212
27.1,22811460101.82823
27.15,22542657042.28256
27.2,22227661217.295296
27.25,22070941218.51906
27.3,22075538033.488663
27.35,22373701028.688465
27.4,22965677091.33203
27.45,23796515948.95954
27.5,24325239079.29685
27.55,24273640577.277145
27.6,23743620794.181858
27.65,22970634079.258907
27.7,22326089154.06251
27.75,21903529682.052944
27.8,21411336842.060986
27.85,20791274877.309864
27.9,20186297163.351524
27.95,19667395848.717213
28.0,19201082316.126835
28.05,18542556394.671864
28.1,17858780953.611893
28.15,17252383230.545
28.2,16662096789.86717
28.25,16108196909.080263
28.3,15513387703.20367
28.35,14831837581.97083
28.4,14224917215.494406
28.45,13914339847.8588
28.5,13779993070.13799
28.55,13596354815.53741
28.6,13392855490.206654
28.65,13302197574.569378
28.7,13272614587.214163
28.75,13152420226.93598
28.8,12968190750.677843
28.85,12683146100.865377
28.9,12354266786.131512
28.95,12119624830.609976
29.0,11938018399.545511
29.05,11807027212.279444
29.1,11669178532.01612
29.15,11425815864.943855
29.2,11167944399.718998
29.25,11012043754.608076
29.3,10989800770.504148
29.35,10920161761.489956
29.4,10726357664.111158
29.45,10547854647.220798
29.5,10434096872.117218
29.55,10277361772.307726
29.6,10094901607.63404
29.65,9964864126.994062
29.7,9854956839.430962
29.75,9735112755.460596
29.8,9621490810.546745
29.85,9587976989.050734
29.9,9654906034.380054
29.95,9672166462.755196
30.0,9612935861.78133
30.05,9603673260.71323
30.1,9625840875.654438
30.15,9586435933.993881
30.2,9502589460.259003
30.25,9377488795.045874
30.3,9205809367.315155
30.35,9026512080.611996
30.4,8862165000.272718
30.45,8693271411.957405
30.5,8496281045.234175
30.55,8294197698.430229
30.6,8147794305.992934
30.65,8086761290.208009
30.7,8023670663.717877
30.75,7925266803.18666
30.8,7846840099.687741
30.85,7798893361.763553
30.9,7798961627.690708
30.95,7833929636.068389
31.0,7895713915.899474
31.05,7975487146.472854
31.1,8009045361.865939
31.15,7939571618.563293
31.2,7805107103.0074835
31.25,7655764776.780204
31.3,7547810672.47958
31.35,7468249411.043843
31.4,7382544465.748527
31.45,7339326673.237416
31.5,7311309613.327906
31.55,7272278002.322114
31.6,7269019729.016123
31.65,7298644262.715728
31.7,7271278482.035113
31.75,7182257023.785311
31.8,7106438022.183965
31.85,7074506951.318495
31.9,7115914921.991152
31.95,7287597912.973287
32.0,7607725859.869217
32.05,8104926721.537294
32.1,8792932087.902325
32.15,9606026781.018187
32.2,10333549539.437109
32.25,10696106468.611708
32.3,10621338007.233494
32.35,10256048886.443144
32.4,9788110606.175856
32.45,9339891679.905674
32.5,8941231094.636148
32.55,8639445452.432125
32.6,8432971984.582419
32.65,8202819099.8373785
32.7,7949016445.013045
32.75,7758275900.057588
32.8,7621058946.446405
32.85,7472621096.746891
32.9,7316865505.6820545
32.95,7185347343.288462
33.0,7082079836.395006
33.05,7005520099.666966
33.1,6958745941.811249
33.15,6952724806.3411875
33.2,6964033595.035285
33.25,6968366036.844028
33.3,7014455463.869757
33.35,7109323688.672997
33.4,7222404562.970689
33.45,7302464061.810398
33.5,7318820299.699587
33.55,7281298770.878937
33.6,7173141376.195528
33.65,7023182592.939799
33.7,6906827503.617111
33.75,6817901549.72276
33.8,6729298264.238385
33.85,6654340543.59065
33.9,6600060178.009696
33.95,6544477387.351765
34.0,6491513593.473267
34.05,6450741718.820846
34.1,6386939901.5828495
34.15,6314416686.1771
34.2,6239846529.852011
34.25,6164447063.814102
34.3,6130955051.309709
34.35,6101533052.50877
34.4,6046074396.799544
34.45,6001145439.20553
34.5,5988300570.24758
34.55,6017097834.059821
34.6,6092837042.840452
34.65,6229758726.808945
34.7,6441190322.790706
34.75,6697170023.054948
34.8,6896440730.227332
34.85,6973701660.166889
34.9,6924471600.041969
34.95,6777686204.977172
35.0,6601566360.404103
35.05,6436237769.236162
35.1,6295009700.64148
35.15,6158563098.390661
35.2,6025467072.189927
35.25,5935080327.502138
35.3,5867739481.673009
35.35,5809558348.407174
35.4,5781067142.031726
35.45,5751585021.090102
35.5,5677309855.525667
35.55,5602485929.68788
35.6,5569066211.438653
35.65,5576190097.149263
35.7,5601286006.817402
35.75,5615623913.012967
35.8,5618690757.1308565
35.85,5669201677.145764
35.9,5803637928.505642
35.95,5955413608.28771
36.0,6082006878.240756
36.05,6196146250.756553
36.1,6299781680.575851
36.15,6400437319.014544
36.2,6508458928.426433
36.25,6589418824.183029
36.3,6601747587.57225
36.35,6568217083.9742365
36.4,6515225116.755317
36.45,6445992715.943947
36.5,6385301508.867718
36.55,6354898585.556097
36.6,6365564146.85235
36.65,6414214129.944616
36.7,6465249920.942004
36.75,6502710644.1776495
36.8,6543481415.092794
36.85,6634823716.756391
36.9,6779106913.372519
36.95,6929077633.526713
37.0,7048799958.683919
37.05,7122594291.90392
37.1,7137933269.204079
37.15,7101003024.476131
37.2,7034279745.587826
37.25,6906331559.240555
37.3,6740813782.731472
37.35,6560633046.094309
37.4,6403818899.779459
37.45,6279574192.571554
37.5,6175700871.24205
37.55,6088452232.97464
37.6,6031026574.306222
37.65,6044976615.533122
37.7,6173709755.414412
37.75,6368138438.27201
37.8,6532310522.402959
37.85,6640322412.796725
37.9,6689149836.079691
37.95,6697394286.131051
38.0,6697591267.639325
38.05,6703203249.53244
38.1,6734728029.110025
38.15,6813421407.365221
38.2,6904262272.209837
38.25,6944507071.706487
38.3,6909069672.477239
38.35,6815091239.825219
38.4,6686881338.23204
38.45,6558532868.197864
38.5,6459533205.501912
38.55,6402253337.2878685
38.6,6358086805.077832
38.65,6326854272.382102
38.7,6290520767.104665
38.75,6220253036.508132
38.8,6136039738.772035
38.85,6062251064.248922
38.9,6009702036.857119
38.95,5959310509.979844
39.0,5899804460.341664
39.05,5855704569.391336
39.1,5827150021.288843
39.15,5801561807.771811
39.2,5781822012.917804
39.25,5795829624.972097
39.3,5868235000.3778305
39.35,6034087033.2163105
39.4,6302945900.316152
39.45,6643965533.900402
39.5,7001480591.551813
39.55,7294196653.623235
39.6,7460130681.739086
39.65,7466987711.643542
39.7,7351175065.604155
39.75,7165911586.986152
39.8,6956318068.700314
39.85,6757992335.592585
39.9,6595940631.034677
39.95,6474867071.345672
40.0,6395018112.015555
40.05,6359621580.879446
40.1,6343605110.843032
40.15,6352845342.423153
40.2,6409925786.485181
40.25,6483381802.374807
40.3,6506401286.002003
40.35,6477573069.778623
40.4,6466919960.029154
40.45,6513821221.316904
40.5,6590454472.754198
40.55,6660579219.160644
40.6,6709205583.812375
40.65,6737111314.471611
40.7,6736757975.603358
40.75,6735802956.006346
40.8,6766842424.703388
40.85,6832109627.498441
40.9,6942981469.688688
40.95,7099553695.430719
41.0,7286710937.6102915
41.05,7465501142.385879
41.1,7590344305.921211
41.15,7656431271.652021
41.2,7683713228.664348
41.25,7660646260.384733
41.3,7556720952.821237
41.35,7382358644.904737
41.4,7190065376.395871
41.45,7017447113.944283
41.5,6900477214.34463
41.55,6857787418.510357
41.6,6879022160.995786
41.65,6961583113.88929
41.7,7124886573.513967
41.75,7366104582.488154
41.8,7627930745.965962
41.85,7843088797.205483
41.9,7981829506.136601
41.95,8030821993.13347
42.0,7990539437.813383
42.05,7860906974.908043
42.1,7689166995.075981
42.15,7547434257.704971
42.2,7480908733.400794
42.25,7505879218.130979
42.3,7626783492.936354
42.35,7890131517.675311
