2theta,Intensity
0.0,5458725.19793988
0.05,13899057.95119743
0.1,14543755.87346881
0.15,15234362.52871408
0.2,15975341.5290189
0.25,16771712.32497947
0.3,17629135.3612118
0.35,18554012.84595655
0.4,19553608.49364243
0.45,20636190.43429917
0.5,21811202.55585684
0.55,23089470.93083145
0.6,24483453.78138373
0.65,26007545.79854019
0.7,27678450.74941511
0.75,29515640.45559438
0.8,31541923.79424518
0.85,33784156.91342693
0.9,37533627.34244862
0.95,40801175.14000244
1.0,44736675.30430062
1.05,49326518.75867842
1.1,53447231.7444139
1.15,58114789.1743433
1.2,63431286.32247911
1.25,69523921.08381143
1.3,76552797.89500502
1.35,84721717.53061208
1.4,94293332.84925848
1.45,105610811.04196334
1.5,119129398.3652206
1.55,135463411.73257858
1.6,155457898.19919088
1.65,182188382.3476482
1.7,213679336.71991464
1.75,254277936.41537672
1.8,307882528.4769059
1.85,380716060.230723
1.9,483195871.2311079
1.95,633824019.1191486
2.0,869136159.8298151
2.05,1292924743.055724
2.1,2397719582.407078
2.15,6113953120.1993065
2.2,15686786077.421492
2.25,33281158180.57693
2.3,35497259111.92654
2.35,23689065794.79727
2.4,12976338921.802504
2.45,8772394061.808842
2.5,7782654844.133463
2.55,7649349208.031771
2.6,7760055031.50174
2.65,7995383768.839755
2.7,8324495931.981446
2.75,8732704637.885292
2.8,9197565396.581772
2.85,9730254455.270777
2.9,10345995274.986225
2.95,11056560420.854313
3.0,11942651191.581665
3.05,13325057641.072392
3.1,15805208510.232355
3.15,19166076704.316
3.2,21408933102.629005
3.25,22159034668.436207
3.3,21843363733.91582
3.35,21347538444.732788
3.4,21971251963.013645
3.45,23616229084.853115
3.5,25857826888.504463
3.55,28559612930.25567
3.6,31764911676.466797
3.65,35582775583.163284
3.7,40186763464.24525
3.75,45924487182.44077
3.8,53578635812.52753
3.85,63878399868.068504
3.9,75415017074.3044
3.95,86912342972.2908
4.0,102454056908.26483
4.05,125213933917.47519
4.1,157534088720.4837
4.15,204264083223.9049
4.2,274923833279.1804
4.25,389653433050.637
4.3,618349842587.3214
4.35,1335451336218.6238
4.4,3845728016425.6143
4.45,9240815304615.701
4.5,12805032926299.03
4.55,8372557855100.697
4.6,3311763584309.0244
4.65,1170670999588.9016
4.7,574551066293.5272
4.75,372247484329.641
4.8,267364593012.80478
4.85,206388257918.17993
4.9,177222547471.04306
4.95,168339918389.74655
5.0,148566728538.50494
5.05,116731707423.38484
5.1,97092434919.7758
5.15,84800258742.73209
5.2,70265316099.84033
5.25,56115452627.76444
5.3,46374850974.72332
5.35,40483329754.30469
5.4,36517502847.311455
5.45,33514980437.660564
5.5,31167855462.41169
5.55,29564232711.24006
5.6,28242618260.043636
5.65,27373955149.319633
5.7,26968210608.99966
5.75,27099949599.160206
5.8,28033904192.488224
5.85,30399162895.43375
5.9,34690989842.2634
5.95,39600438355.51142
6.0,43813866351.076385
6.05,51498811875.65689
6.1,68147378366.55382
6.15,110581059257.41438
6.2,244503950338.24384
6.25,550610991338.9824
6.3,869287213970.2421
6.35,902128835422.867
6.4,885178324011.2902
6.45,885384057610.3458
6.5,874927177231.3246
6.55,895378264913.7694
6.6,674342335574.7225
6.65,325430574708.1908
6.7,133675492212.37895
6.75,64635260541.75617
6.8,42976479345.569534
6.85,32094194502.56149
6.9,25348641825.374447
6.95,20917499934.319206
7.0,17995024234.463215
7.05,16299034185.277773
7.1,16239254996.455706
7.15,18037270024.87873
7.2,19021834046.40426
7.25,17138736251.81911
7.3,14913526020.759857
7.35,14122948126.427261
7.4,14651339721.434265
7.45,16635666766.99185
7.5,20229633555.978855
7.55,25017862020.99507
7.6,33948724920.788425
7.65,64669436694.15254
7.7,172302516264.02756
7.75,395618517268.45337
7.8,525112502276.0992
7.85,334363418940.6333
7.9,135605474506.45567
7.95,58098006494.79172
8.0,43375868877.80016
8.05,38444941390.47906
8.1,29703033371.431828
8.15,22270674383.835217
8.2,18653113577.32138
8.25,16093373094.802187
8.3,13781615227.05567
8.35,12909471783.244015
8.4,12505546514.63607
8.45,12173232023.697521
8.5,12543892414.957346
8.55,13348030334.214104
8.6,15375712032.580683
8.65,18915237914.58113
8.7,26324820317.5361
8.75,47416548174.71665
8.8,105785425133.58044
8.85,215320743537.19116
8.9,330808265634.542
8.95,437819389666.39124
9.0,484951480195.5654
9.05,369785974567.2519
9.1,287675715605.7638
9.15,276298230034.02136
9.2,250149663810.32693
9.25,180145395862.4516
9.3,96020603915.57626
9.35,47931887727.02741
9.4,29720793093.005795
9.45,22084611099.420208
9.5,18489226867.087166
9.55,17039308525.314293
9.6,16527428627.367386
9.65,17054057807.731123
9.7,19426287211.196594
9.75,25202781003.920864
9.8,43120558038.81152
9.85,96754300652.5381
9.9,199280363828.13516
9.95,274538696709.92245
10.0,263916748121.0554
10.05,270114446050.5174
10.1,295864430739.7728
10.15,287054493466.56213
10.2,273003871258.4394
10.25,301630632364.77814
10.3,272293855206.99997
10.35,166030310541.313
10.4,96523630134.16872
10.45,60204625336.834404
10.5,33817180166.048794
10.55,19641071967.495182
10.6,13809167725.511272
10.65,11169574311.841301
10.7,9528856203.96634
10.75,8507606976.645074
10.8,7619481910.184755
10.85,6822421923.871498
10.9,6473675735.695866
10.95,6244831226.009944
11.0,5900258151.775143
11.05,6065478268.977914
11.1,6897626983.156993
11.15,7219860058.06464
11.2,6151470816.525444
11.25,4550994775.075184
11.3,3787006143.2345495
11.35,3584601917.7694707
11.4,3734155011.958437
11.45,4172723639.2413716
11.5,5015194308.960771
11.55,5931437482.492959
11.6,6185983966.232216
11.65,6617142990.831172
11.7,9066950323.337072
11.75,15023868047.059061
11.8,23141031355.77677
11.85,30282193139.269733
11.9,36358090071.96953
11.95,35822941731.36233
12.0,32524339020.11755
12.05,25835048822.50792
12.1,22853743241.164364
12.15,27902905578.17305
12.2,32860628312.635124
12.25,34554467690.91728
12.3,32321007439.69938
12.35,29926623845.738773
12.4,26422439452.53672
12.45,31029154628.76466
12.5,61337426523.98731
12.55,128147204854.86717
12.6,189957329256.66547
12.65,198121704403.44867
12.7,175844234704.15906
12.75,153951203293.87982
12.8,155926103449.17224
12.85,173947338683.50607
12.9,189594793247.4594
12.95,177777547548.8681
13.0,124512905855.38478
13.05,67925053967.098785
13.1,47269715942.46399
13.15,41908054566.299255
13.2,30217682593.06851
13.25,16710975209.178017
13.3,9542216758.757313
13.35,7029902832.628536
13.4,6598972036.949317
13.45,7855873353.201275
13.5,9868748769.442984
13.55,9529077844.209753
13.6,7692914380.818589
13.65,6247861147.725688
13.7,4999364018.783528
13.75,4591863966.710672
13.8,5015490128.327712
13.85,5217589465.525765
13.9,5012928289.009017
13.95,5098788698.512649
14.0,5481297390.886556
14.05,5902615379.971877
14.1,5796650499.036975
14.15,5305234204.984623
14.2,5429251850.957494
14.25,5858517953.511582
14.3,6309413644.504533
14.35,7124849243.864756
14.4,7312224312.995679
14.45,6437061919.246984
14.5,6205912856.764695
14.55,6925843931.1928625
14.6,8864626478.558634
14.65,14978887447.96625
14.7,29007463852.381798
14.75,41135966821.02633
14.8,39666586145.7855
14.85,38582607383.55786
14.9,43676125602.501785
14.95,35959238799.171555
15.0,25278581997.288296
15.05,21810641342.715233
15.1,21247014325.341812
15.15,24108511228.253742
15.2,33593341012.333515
15.25,45811961742.27519
15.3,42073437683.23845
15.35,37040176562.31165
15.4,35319713231.446754
15.45,26367514455.44345
15.5,15764979146.867584
15.55,13984770271.195625
15.6,18700197823.483902
15.65,18780180593.630642
15.7,13040922353.906446
15.75,9248935379.723564
15.8,8317833365.757349
15.85,7180242022.19371
15.9,6323359876.018544
15.95,6758774350.29656
16.0,9169330385.608217
16.05,13302549260.189034
16.1,18704084161.866047
16.15,23452970119.958553
16.2,26277602778.185104
16.25,24516825448.18366
16.3,20176506394.421124
16.35,20901596678.498554
16.4,23316133043.836098
16.45,22318873581.864464
16.5,18024553324.319553
16.55,12978184550.073078
16.6,9957473161.0917
16.65,7975223531.482074
16.7,7774569459.430112
16.75,10032212805.009352
16.8,12611486201.477186
16.85,11607957596.323004
16.9,9069974017.181904
16.95,7494277283.379368
17.0,6465637957.754304
17.05,5141868743.303081
17.1,4044962610.4907207
17.15,3405457529.2565928
17.2,3068315900.522257
17.25,2685645267.3772964
17.3,2705865506.1465435
17.35,3195135182.2905817
17.4,3573048611.5141273
17.45,3258057969.069559
17.5,2932795122.9378867
17.55,2977848534.405634
17.6,3616670822.645034
17.65,5116185909.58318
17.7,8812946904.594637
17.75,16275392842.70403
17.8,22890227471.71428
17.85,24542584926.383427
17.9,27533054720.559826
17.95,25499310600.744556
18.0,20903618683.866653
18.05,18310108087.082195
18.1,13150769257.58179
18.15,10139201676.63977
18.2,13463521459.289862
18.25,20835244590.85157
18.3,25336385281.084282
18.35,25175815190.20425
18.4,23150940098.19819
18.45,18428141811.124264
18.5,16544761180.718555
18.55,16862291335.690716
18.6,17324446381.08088
18.65,17771969444.9483
18.7,15286361450.366108
18.75,10829871462.225521
18.8,8696767441.228642
18.85,8337500692.235072
18.9,7202448587.205315
18.95,6333247214.567291
19.0,6389601150.17756
19.05,6296683857.765235
19.1,5267636279.440156
19.15,4311797398.22222
19.2,3949631391.88349
19.25,3631653482.203286
19.3,3351661381.736049
19.35,3183343820.303119
19.4,3075272834.2991447
19.45,3171338653.618273
19.5,3817560812.6908455
19.55,5106510953.3331
19.6,6798765870.832829
19.65,8974179962.557486
19.7,10715564746.969723
19.75,9751049474.14924
19.8,8151978533.554637
19.85,8352699897.47182
19.9,8569254108.5706215
19.95,8653065048.013708
20.0,8208567276.2694645
20.05,6875994269.654677
20.1,6656821054.551881
20.15,8967581913.185873
20.2,12956654326.300785
20.25,15858403901.77002
20.3,17846273536.67877
20.35,17134721792.125666
20.4,17141788497.4292
20.45,16653190618.15894
20.5,14861085801.08751
20.55,14444527700.64566
20.6,14765365206.173965
20.65,14828232153.994831
20.7,15251123102.695879
20.75,14661833958.282368
20.8,13171263724.420769
20.85,13296603763.5629
20.9,14988420754.009459
20.95,15442627946.761654
21.0,12940269239.448591
21.05,10320522065.259958
21.1,9149759933.756798
21.15,8053597582.830738
21.2,8362544365.493836
21.25,9331749838.416422
21.3,9204786484.01611
21.35,10892709561.182962
21.4,13533586543.654243
21.45,14188306374.928232
21.5,17590804579.053238
21.55,25907449569.301926
21.6,29731228585.482716
21.65,25800603222.417793
21.7,21821969975.31707
21.75,26116957174.252125
21.8,35211785904.21248
21.85,30372495687.4867
21.9,19968080680.03625
21.95,16874245928.659878
22.0,16882884347.04141
22.05,15735570118.788662
22.1,16569189997.593262
22.15,16442344493.525406
22.2,19167595954.02729
22.25,29930778558.387985
22.3,35682312765.85213
22.35,28110862316.56493
22.4,25539508252.992455
22.45,30602511451.953197
22.5,34944567650.4543
22.55,29695709238.71058
22.6,20051909784.532387
22.65,13186321740.634972
22.7,9716973300.037773
22.75,8343587380.382828
22.8,8643750854.083948
22.85,10526288721.373081
22.9,11354341267.527288
22.95,11334257445.045145
23.0,11000235282.150427
23.05,10980912560.976583
23.1,11274876781.030508
23.15,10983022530.088432
23.2,10386904981.059574
23.25,11651141331.5051
23.3,18253775278.602753
23.35,34440026797.98151
23.4,55708069069.1151
23.45,61298102576.03408
23.5,54944197372.547
23.55,61010934312.8003
23.6,69322378779.1987
23.65,73425233755.77405
23.7,76784101988.6733
23.75,91880250605.50272
23.8,91662969508.89989
23.85,65101492803.11583
23.9,42912244194.675
23.95,29488214649.29045
24.0,25449725411.951687
24.05,36433988845.15426
24.1,55441525932.72909
24.15,59165824358.8538
24.2,55690709765.47595
24.25,52981898404.2543
24.3,48554005258.92072
24.35,51613091355.4351
24.4,50069583571.05159
24.45,53304282151.10616
24.5,63796163950.637375
24.55,71271483759.17252
24.6,73121991636.2017
24.65,68311558626.2406
24.7,65356991308.89739
24.75,61880963075.859505
24.8,66627885315.97183
24.85,58089652481.03358
24.9,41115656512.06825
24.95,36795131328.16649
25.0,33240042691.73749
25.05,23913533945.253136
25.1,18629632447.887444
25.15,22067413531.856373
25.2,29492427973.489517
25.25,31799097989.735443
25.3,26098796021.529324
25.35,17147755994.94276
25.4,13257000033.098675
25.45,14465790686.756224
25.5,17032827364.224092
25.55,22539061538.419594
25.6,31646845111.37404
25.65,35538373628.19248
25.7,32538777259.014942
25.75,27482299860.20269
25.8,28191179894.09189
25.85,35391062253.73367
25.9,31457856855.27902
25.95,21340937385.51806
26.0,19604959191.58068
26.05,23459918729.902557
26.1,22902321614.181736
26.15,21633206046.22608
26.2,20856419997.49911
26.25,16993492278.742786
26.3,18886925863.73875
26.35,28326702080.62713
26.4,31401735909.80665
26.45,28326983549.153664
26.5,30565359472.494457
26.55,31492989590.546253
26.6,30641478823.968567
26.65,26404798745.45105
26.7,19859945775.78537
26.75,15717081810.38806
26.8,12653227859.657944
26.85,10263983319.677357
26.9,9297458153.365177
26.95,10374650481.196325
27.0,12983966385.095865
27.05,13748673896.381723
27.1,12293768587.583872
27.15,12196912155.803955
27.2,13942257464.49595
27.25,15322222060.376451
27.3,15086025727.286757
27.35,15384258600.210274
27.4,18525466876.79576
27.45,21417430904.64153
27.5,20902353861.3175
27.55,21488338348.97842
27.6,26831464260.86401
27.65,33080469303.276955
27.7,41400057788.183876
27.75,77163460187.41837
27.8,189936442621.70505
27.85,364543422125.165
27.9,374278768020.1797
27.95,214500008227.0515
28.0,129415796785.3955
28.05,127832255809.36833
28.1,116603210037.49796
28.15,90676311440.31615
28.2,88476906623.81985
28.25,89755749738.97978
28.3,83213355357.9499
28.35,74046213474.41068
28.4,81955169916.22247
28.45,81506803771.74379
28.5,55449579935.356766
28.55,32611092494.20556
28.6,26842572674.390778
28.65,27761569533.708755
28.7,26684893352.68008
28.75,24964196744.243294
28.8,22057763291.70864
28.85,22027815693.090942
28.9,21434895142.747288
28.95,18858028075.65542
29.0,17291003537.626736
29.05,18282702154.99625
29.1,19596393750.22696
29.15,18429102208.91789
29.2,18326431086.688015
29.25,18307382539.844254
29.3,16074275897.24805
29.35,14142908385.614109
29.4,12340481852.460464
29.45,10535130142.058132
29.5,8332671737.622498
29.55,6642180735.508485
29.6,6378850783.919891
29.65,6884461779.955743
29.7,6793635289.74027
29.75,6590957040.865689
29.8,6711327741.366103
29.85,7643367373.506375
29.9,7835269408.627896
29.95,6992043672.499697
30.0,7253524620.7155075
30.05,8783948414.954634
30.1,10790536744.387518
30.15,11841723459.338486
30.2,10851024293.54232
30.25,9073395599.707914
30.3,7302847712.403063
30.35,6622750546.218625
30.4,6232702203.280539
30.45,6042575522.128209
30.5,6813307551.394291
30.55,7562726230.114131
30.6,7299285972.383551
30.65,7789327911.675367
30.7,8356878396.677031
30.75,8510798545.505425
30.8,8094193762.861486
30.85,6685862151.5699415
30.9,6028654266.883377
30.95,6144394313.088823
31.0,5968706778.014151
31.05,5666628536.269854
31.1,6361384053.1426935
31.15,6907799609.713338
31.2,6551044070.705463
31.25,5542337696.56959
31.3,4248888633.92669
31.35,3237389529.072376
31.4,2836136093.6162033
31.45,2912231954.1331654
31.5,3181560434.950011
31.55,3395755458.376959
31.6,3407907101.370217
31.65,3638113209.9533696
31.7,3713536701.28366
31.75,3328521602.326659
31.8,3215537981.4748096
31.85,3863897624.658847
31.9,4511764436.398593
31.95,5485355256.586896
32.0,7304862253.347472
32.05,8246827727.881804
32.1,7517362575.431915
32.15,6750870901.105073
32.2,6843025419.936251
32.25,7286082786.466265
32.3,8042011566.102269
32.35,9159706312.573168
32.4,10641274803.133488
32.45,9374838834.966438
32.5,6279708911.031812
32.55,4621114494.968381
32.6,3726396018.096379
32.65,3303535494.2671795
32.7,3770877084.8320103
32.75,5009349241.682188
32.8,6488238458.46235
32.85,7309318892.450334
32.9,7718056817.872452
32.95,8156415903.155948
33.0,7037675147.447563
33.05,5663775476.56977
33.1,6294196177.099989
33.15,8362943498.6719885
33.2,9070574638.228792
33.25,8574491667.844501
33.3,8221717641.706647
33.35,7913641543.470489
33.4,6370916293.198063
33.45,5346502130.288065
33.5,5500395545.559741
33.55,6460946413.632269
33.6,7914489023.619393
33.65,8478348008.784001
33.7,7475447336.511492
33.75,6047383480.925672
33.8,5497483605.200165
33.85,5336794745.107069
33.9,4979472581.386985
33.95,4716212130.831445
34.0,4153959325.1369905
34.05,3270966647.5900865
34.1,2854672915.1720967
34.15,3162589391.6647353
34.2,3750834550.332176
34.25,4039139760.1389594
34.3,4350143054.16055
34.35,4855630216.58155
34.4,5437700854.805894
34.45,5859821475.578983
34.5,5553577505.2153425
34.55,5134623952.7147665
34.6,5042911910.848158
34.65,4645134599.237791
34.7,4031565764.1480026
34.75,3925012070.3837714
34.8,3940013892.4827633
34.85,3512433340.604655
34.9,3418253577.6556153
34.95,3524651332.1466336
35.0,3368719582.246394
35.05,3174625245.6832166
35.1,3257959958.105241
35.15,3450154206.6596045
35.2,3623860971.1929436
35.25,4534463536.114668
35.3,5749814097.43275
35.35,6282547253.041116
35.4,5648123713.83167
35.45,4334206588.920159
35.5,3270357934.3857045
35.55,2755570665.98079
35.6,3173561740.505742
35.65,4690181329.01238
35.7,6451123522.202052
35.75,6844888357.440072
35.8,6378452553.184748
35.85,5505267251.54945
35.9,5022684832.745168
35.95,4986068612.100127
36.0,5094042352.193705
36.05,5574862933.28121
36.1,6517432694.497289
36.15,6763601756.969285
36.2,6582875148.646552
36.25,7433847749.244027
36.3,8127233758.2321
36.35,7086960124.60994
36.4,5443652802.005784
36.45,4860849894.7693615
36.5,5069406616.743625
36.55,4835314209.003708
36.6,4450511017.870944
36.65,4375190810.850405
36.7,4718515307.397011
36.75,5057350989.711172
36.8,4996785383.956361
36.85,4993878942.503569
36.9,5350018289.310751
36.95,5853516349.690282
37.0,5394309653.9267025
37.05,4844544935.741814
37.1,4396763486.066996
37.15,3882227432.314822
37.2,3921667140.8097243
37.25,4309552129.980383
37.3,4136389475.4233465
37.35,4087417629.892752
37.4,4701902574.097689
37.45,5688663025.648988
37.5,6264825713.18811
37.55,6663616991.441851
37.6,6735847225.234808
37.65,6857322973.51867
37.7,7435664611.673587
37.75,7479134741.632299
37.8,7295109855.995754
37.85,7068210384.901234
37.9,6891158121.287006
37.95,6393907045.984567
38.0,5005446731.340927
38.05,4024368223.5242586
38.1,3985344562.8226337
38.15,4581461925.345288
38.2,5629860888.91939
38.25,6397680590.410827
38.3,5609329318.517858
38.35,4363265406.8706665
38.4,4444416753.009919
38.45,4834549813.897827
38.5,4433883137.867217
38.55,4768615893.445166
38.6,6422587346.8799715
38.65,8309147017.442913
38.7,7901650051.348564
38.75,5868305895.346969
38.8,5182306470.904505
38.85,5851761834.3803
38.9,5780706505.34467
38.95,5576797756.488171
39.0,6580141893.705957
39.05,7211559453.552677
39.1,6436997692.84438
39.15,6219408599.498686
39.2,6170129335.534619
39.25,5755099116.860994
39.3,6051279549.944539
39.35,6240355118.041817
39.4,5569989018.7628145
39.45,5010238046.528313
39.5,5028857383.437436
39.55,5151386241.030474
39.6,4688713184.618513
39.65,4077346489.6007323
39.7,3670982714.9127526
39.75,3497826760.4766526
39.8,3694821980.2742686
39.85,4184898982.631011
39.9,4723429178.686169
39.95,4687848840.573891
40.0,4567821156.945825
40.05,5378015942.8839
40.1,6639996245.27114
40.15,6536611309.678
40.2,5820590515.798358
40.25,5852330150.750904
40.3,5938599568.395649
40.35,5606356157.904149
40.4,5508751049.797577
40.45,5772076397.358681
40.5,5671007725.743848
40.55,5203151127.767069
40.6,5364923980.272716
40.65,6480260289.471429
40.7,7046612945.59203
40.75,6197331513.664882
40.8,5118668211.346359
40.85,4169675995.537237
40.9,3662241082.924373
40.95,3531601177.127709
41.0,3703359673.9486804
41.05,4298735993.860986
41.1,4771436247.5827055
41.15,4436203287.74737
41.2,3789840665.021146
41.25,3840126447.5650105
41.3,4515004362.493023
41.35,5279484082.716085
41.4,5041102082.090921
41.45,4271572700.4273076
41.5,3723807495.681045
41.55,3639126921.810999
41.6,4060631773.7732615
41.65,4919570256.121623
41.7,5296024525.604273
41.75,5044079984.489713
41.8,4582585773.005787
41.85,4073745548.0510035
41.9,4009359924.5065045
41.95,4415737428.144533
42.0,5901092976.981842
42.05,8642487089.205833
42.1,12697893726.739374
42.15,15285810942.257488
42.2,13243713664.472736
42.25,10983555981.814142
42.3,10680969536.916765
42.35,9510172935.198145
42.4,6923782830.259571
